Time,ECG_Lead1
0,0.0014471785714285598
1,0.0014051785714286273
2,0.0014506071428571536
3,0.0014386071428571512
4,0.0014179285714285633
5,0.0014434285714285875
6,0.0014717142857142969
7,0.0014340000000000685
8,0.001428107142857168
9,0.0014915357142857744
10,0.001541250000000005
11,0.001536214285714215
12,0.001529571428571381
13,0.0015333214285713531
14,0.0015349285714285495
15,0.0015717857142856673
16,0.001580357142857076
17,0.0015768214285714574
18,0.0016220357142857824
19,0.0016361785714285608
20,0.0016557857142856847
21,0.001690714285714228
22,0.0016787142857142255
23,0.0016627500000000494
24,0.0016847142857143028
25,0.0016843928571429246
26,0.0016862142857143223
27,0.0016859999999999686
28,0.0016616785714285852
29,0.00167185714285719
30,0.0016742142857143196
31,0.001677857142857115
32,0.0016938214285714436
33,0.0016775357142857369
34,0.0016560000000000383
35,0.0016008214285714623
36,0.0015677142857143168
37,0.0015401785714285409
38,0.0015238928571428341
39,0.0015035357142857769
40,0.0014881071428571805
41,0.0014641071428571756
42,0.0014388214285713527
43,0.0014284285714285464
44,0.001414178571428591
45,0.0013966071428572187
46,0.0013776428571428516
47,0.0013992857142857268
48,0.0013973571428571522
49,0.001326642857142803
50,0.0012882857142856657
51,0.0012790714285715005
52,0.001285928571428536
53,0.0012883928571428426
54,0.0013006071428571988
55,0.0012878571428571104
56,0.001297178571428605
57,0.0012939642857142124
58,0.0012695357142856523
59,0.0012788571428571467
60,0.0012844285714285165
61,0.0012799285714286109
62,0.0012799285714286109
63,0.0012898928571428618
64,0.0012882857142856657
65,0.0012698571428571828
66,0.0012481071428571309
67,0.001251749999999926
68,0.0012578571428571803
69,0.0012623571428570862
70,0.001273714285714332
71,0.001251857142857103
72,0.00126578571428568
73,0.001275321428571376
74,0.0012455357142856472
75,0.0012448928571428906
76,0.0012618214285713542
77,0.001239642857142899
78,0.0012478928571429293
79,0.0012827142857142957
80,0.0012639642857142823
81,0.0012565714285713626
82,0.0012947142857142983
83,0.0013106785714286267
84,0.001294285714285743
85,0.0012784285714285914
86,0.001285928571428536
87,0.0013074642857142343
88,0.001302107142857218
89,0.001265249999999948
90,0.0012847500000000471
91,0.0013218214285713665
92,0.0013221428571428971
93,0.0012984642857142704
94,0.001275749999999931
95,0.0012848571428570718
96,0.0012936428571428342
97,0.0012916071428570827
98,0.001306499999999947
99,0.0012980357142857153
100,0.0012800357142857877
101,0.0012827142857142957
102,0.0013069285714285021
103,0.0012647142857142159
104,0.001215107142857162
105,0.0012626785714286168
106,0.00130821428571432
107,0.0012714642857142267
108,0.0012541071428572082
109,0.0012912857142857045
110,0.0012852857142857793
111,0.0012590357142856692
112,0.0012486428571428629
113,0.001265357142857125
114,0.0012726428571428678
115,0.001280249999999989
116,0.0012807857142857213
117,0.001272535714285691
118,0.001254642857142788
119,0.0012442499999999817
120,0.0012676071428570778
121,0.0012935357142856573
122,0.0012602142857143102
123,0.0012207857142857088
124,0.0012214285714286176
125,0.0012687857142857188
126,0.0012635357142857272
127,0.0012124285714285017
128,0.0012129642857142337
129,0.0012766071428571939
130,0.0012787499999999698
131,0.0012690000000000724
132,0.0012693214285714508
133,0.0012734999999999782
134,0.001241249999999943
135,0.0012263571428570788
136,0.0012572142857142715
137,0.00129257142857137
138,0.0013193571428572121
139,0.0013257857142856926
140,0.001293857142857188
141,0.0012879642857142872
142,0.0012949285714284997
143,0.0012842142857143152
144,0.0012538928571428545
145,0.0012277500000000734
146,0.0012256071428571453
147,0.00124639285714291
148,0.0012289285714285622
149,0.0012041785714286236
150,0.001215107142857162
151,0.0012200357142857752
152,0.0011996785714285657
153,0.001204071428571447
154,0.001221749999999996
155,0.0011888571428572041
156,0.0011590714285714756
157,0.0011840357142857679
158,0.001218535714285756
159,0.0012276428571428965
160,0.0012206785714285319
161,0.0011873571428571848
162,0.0011850000000000551
163,0.0012114642857142144
164,0.0012722142857143127
165,0.0014085000000000443
166,0.0015471428571429055
167,0.0017017499999999431
168,0.0018588214285714397
169,0.001935642857142891
170,0.0020061428571428864
171,0.002062821428571482
172,0.001861928571428503
173,0.001479428571428595
174,0.0011514642857143541
175,0.0009843214285714299
176,0.0009446785714286271
177,0.0008951785714285977
178,0.00088832142857141
179,0.0009275357142856576
180,0.000967499999999991
181,0.0010408928571428483
182,0.0010948928571427835
183,0.0011201785714286064
184,0.001146000000000009
185,0.0011564999999999922
186,0.00116100000000005
187,0.0012023571428570736
188,0.0012319285714286008
189,0.0012350357142856642
190,0.001241892857142852
191,0.0012516428571429014
192,0.0012406071428571863
193,0.0012394285714285454
194,0.0012410357142857416
195,0.0012261428571428772
196,0.001199999999999944
197,0.0012099642857143474
198,0.0012266785714286092
199,0.001266964285714321
200,0.00128196428571421
201,0.0012595714285714012
202,0.0012437142857142497
203,0.0012704999999999396
204,0.001285928571428536
205,0.0012793928571428787
206,0.0012817500000000086
207,0.0012986785714286242
208,0.0013051071428571046
209,0.0013358571428571204
210,0.0013848214285714176
211,0.001338321428571427
212,0.0013224642857142753
213,0.0013400357142856478
214,0.0013531071428571145
215,0.001368321428571357
216,0.0013837499999999534
217,0.0014257500000000383
218,0.0014639999999999987
219,0.0014573571428571645
220,0.0014325000000000492
221,0.0014629285714285345
222,0.0014711785714285647
223,0.0014461071428570956
224,0.0014932499999999952
225,0.00153578571428566
226,0.0015430714285714028
227,0.0015482142857142175
228,0.0015311785714285772
229,0.0015162857142857129
230,0.0015086785714285916
231,0.001516178571428536
232,0.001523571428571456
233,0.0015187500000000194
234,0.0015079285714285058
235,0.0014871428571428932
236,0.001480071428571504
237,0.001477714285714222
238,0.0014489999999999575
239,0.0014244642857142204
240,0.001422000000000066
241,0.0013825714285714647
242,0.001390821428571495
243,0.0013842857142856856
244,0.0013332857142857892
245,0.0012745714285714424
246,0.0012879642857142872
247,0.00133500000000001
248,0.0013063928571429224
249,0.0012138214285714963
250,0.0011916428571428891
251,0.0011774999999999583
252,0.0011366785714285144
253,0.0011654999999999559
254,0.0011854285714286102
255,0.001163892857142912
256,0.0011480357142857603
257,0.0011260714285713546
258,0.0011262857142857084
259,0.001141499999999951
260,0.0011207142857143383
261,0.0011079642857142501
262,0.0011033571428571674
263,0.001082999999999958
264,0.001073571428571439
265,0.0010603928571427954
266,0.0010521428571429172
267,0.001050107142857166
268,0.0010832142857143115
269,0.0010956428571428692
270,0.0010853571428570876
271,0.001080214285714273
272,0.0011033571428571674
273,0.0010956428571428692
274,0.0010794642857143394
275,0.0010604999999999723
276,0.001023857142857208
277,0.0010386428571428955
278,0.001067892857142892
279,0.0011101071428571783
280,0.0011146071428570841
281,0.0010638214285713893
282,0.001073571428571439
283,0.0011087142857143359
284,0.0011240357142857553
285,0.0011383928571428877
286,0.0010922142857142754
287,0.0010760357142857455
288,0.0011108571428571118
289,0.0010843928571428003
290,0.0010957500000000461
291,0.0011202857142857832
292,0.0011165357142856587
293,0.0011087142857143359
294,0.00109917857142864
295,0.0010623214285713698
296,0.0010821428571428475
297,0.0011065714285714075
298,0.0011093571428570925
299,0.0011145000000000595
300,0.0010869642857142838
301,0.001050535714285721
302,0.0010669285714286047
303,0.0011534999999999534
304,0.001134857142857117
305,0.0010826785714285795
306,0.0010825714285714026
307,0.0011033571428571674
308,0.001123178571428645
309,0.0011030357142857892
310,0.0010809642857143587
311,0.0010953214285714908
312,0.001118035714285678
313,0.0011103214285713798
314,0.0011064642857142306
315,0.0011527500000000199
316,0.0011652857142857543
317,0.00113474999999994
318,0.0011126785714285095
319,0.0011273571428571723
320,0.001132499999999987
321,0.001123178571428645
322,0.0011243571428571338
323,0.0011065714285714075
324,0.001132071428571432
325,0.0011720357142857654
326,0.0011449285714285448
327,0.0010816071428571153
328,0.0010774285714285879
329,0.0011048571428571867
330,0.00108353571428569
331,0.0010547142857142485
332,0.00109178571428572
333,0.001111928571428576
334,0.001123071428571468
335,0.0011178214285714764
336,0.0011196428571428742
337,0.0011452500000000755
338,0.0011739642857143398
339,0.0011170714285713907
340,0.0011073214285714935
341,0.0011261785714285315
342,0.001111392857142844
343,0.0011136428571427968
344,0.0011484642857143156
345,0.001166678571428597
346,0.0011551071428571496
347,0.0011438571428570806
348,0.0011248928571428657
349,0.0011366785714285144
350,0.0011536071428571303
351,0.0011890714285714057
352,0.0011893928571427839
353,0.0011752500000000055
354,0.0011799642857142649
355,0.0011868214285714526
356,0.0012244285714285042
357,0.0011783571428570687
358,0.0011224285714285592
359,0.0010910357142857865
360,0.0011031428571428136
361,0.0011178214285714764
362,0.0010878214285713942
363,0.0010602857142857707
364,0.0010698214285714666
365,0.0010878214285713942
366,0.0010938214285714715
367,0.0011038928571428994
368,0.0010922142857142754
369,0.0010713214285714859
370,0.0010811785714285602
371,0.001097999999999999
372,0.0010675714285713614
373,0.0010648928571428534
374,0.0011000357142857504
375,0.001077321428571411
376,0.001065107142857207
377,0.0010923214285714522
378,0.0011644285714286439
379,0.0012414642857142967
380,0.0013669285714285146
381,0.0015384642857143203
382,0.0017154642857143188
383,0.0018413571428570919
384,0.0019145357142857477
385,0.0019410000000000594
386,0.001798500000000049
387,0.0015197142857143067
388,0.0012381428571428797
389,0.0010101428571428325
390,0.0009294642857142321
391,0.0008746071428571867
392,0.0007868571428571971
393,0.0007763571428572139
394,0.000847607142857143
395,0.0009330000000000028
396,0.0009744642857143557
397,0.0010179642857143076
398,0.00105675
399,0.0010560000000000664
400,0.00106735714285716
401,0.0011182500000000318
402,0.001140321428571462
403,0.00111857142857141
404,0.0011322857142857857
405,0.0011457857142856552
406,0.0011140714285715044
407,0.001115142857142816
408,0.0011796428571428867
409,0.0011595000000000307
410,0.0011392499999999981
411,0.0011455714285714537
412,0.0011282142857142827
413,0.0011047500000000098
414,0.0011438571428570806
415,0.0011824285714285717
416,0.0011886428571428504
417,0.0011768571428572017
418,0.0011586428571429203
419,0.0011768571428572017
420,0.001174928571428627
421,0.001158749999999945
422,0.0011923928571428227
423,0.0012091071428570847
424,0.0012066428571429304
425,0.0012368571428572142
426,0.0012335357142856448
427,0.0012310714285714904
428,0.0012668571428571442
429,0.0012701785714285612
430,0.001239535714285722
431,0.0012923571428571684
432,0.0013751785714285448
433,0.001355035714285689
434,0.0013325357142857034
435,0.0013554642857142442
436,0.0013751785714285448
437,0.0013713214285713958
438,0.0013670357142856915
439,0.0013815000000000006
440,0.0014061428571429146
441,0.0014695714285713685
442,0.0014942142857142825
443,0.0014729999999999624
444,0.0014705357142856558
445,0.0014657142857142196
446,0.0014937857142857272
447,0.0014919642857143295
448,0.0014524285714285514
449,0.0014864999999999844
450,0.0014936785714285503
451,0.0014878928571428268
452,0.0014796428571427964
453,0.0014535000000000155
454,0.001400892857142923
455,0.0013771071428571194
456,0.0013867499999999922
457,0.001400250000000014
458,0.0013393928571428912
459,0.0012668571428571442
460,0.0012762857142856632
461,0.00128196428571421
462,0.001251321428571371
463,0.0012260357142857004
464,0.0011853214285714334
465,0.0011854285714286102
466,0.0011611071428570747
467,0.0011224285714285592
468,0.0011064642857142306
469,0.001118035714285678
470,0.0011634642857143568
471,0.0011082857142857806
472,0.0010686428571428255
473,0.0010733571428570851
474,0.0010616785714286131
475,0.001064571428571475
476,0.0010923214285714522
477,0.001104107142857101
478,0.0010711071428571321
479,0.0010492500000000556
480,0.0010597500000000387
481,0.0010775357142857648
482,0.0010910357142857865
483,0.0011042142857142778
484,0.0010899642857143226
485,0.0010792499999999856
486,0.001083428571428513
487,0.0010414285714285805
488,0.0010157142857143548
489,0.0010639285714285661
490,0.0010691785714285577
491,0.0010586785714285746
492,0.001094035714285673
493,0.0011106428571429105
494,0.001097999999999999
495,0.0011010000000000377
496,0.0011120357142857529
497,0.0011073214285714935
498,0.0010820357142856706
499,0.0010703571428571986
500,0.0010911428571428112
501,0.0010930714285713858
502,0.0010560000000000664
503,0.0010511785714286302
504,0.0011238214285714016
505,0.0011631428571428262
506,0.0010998214285713966
507,0.0010798928571428945
508,0.0010949999999999604
509,0.0010892142857142366
510,0.0010797857142857176
511,0.0010798928571428945
512,0.0010957500000000461
513,0.001122535714285736
514,0.0011054999999999436
515,0.001104107142857101
516,0.0011207142857143383
517,0.001116428571428634
518,0.0010929642857143611
519,0.0010949999999999604
520,0.0010960714285714243
521,0.0011102142857143552
522,0.0011117142857142222
523,0.0010987499999999325
524,0.0010944642857142282
525,0.0010782857142856983
526,0.00108674999999993
527,0.0011284285714286365
528,0.0011581071428571883
529,0.0011300357142856805
530,0.0011127857142856864
531,0.0011204999999999846
532,0.0011016428571427944
533,0.001103999999999924
534,0.001111392857142844
535,0.0011220000000000039
536,0.001119321428571496
537,0.0011000357142857504
538,0.0011095714285714463
539,0.0011349642857142936
540,0.0011153571428571699
541,0.001098642857142908
542,0.001104107142857101
543,0.0011133214285714186
544,0.001126392857142885
545,0.0010943571428572037
546,0.0010853571428570876
547,0.0011206071428571615
548,0.001131428571428523
549,0.0011375357142857773
550,0.0011008928571428608
551,0.0011222142857143576
552,0.0011394642857143517
553,0.0011094642857142694
554,0.00109735714285709
555,0.001094035714285673
556,0.0010836428571428668
557,0.0011215714285714488
558,0.0011750357142856517
559,0.0011931428571429084
560,0.001177821428571489
561,0.0011681785714286162
562,0.0011702142857142155
563,0.001157678571428633
564,0.0011567142857143457
565,0.0012099642857143474
566,0.0012259285714285235
567,0.0012163928571428276
568,0.0011947499999999524
569,0.0011996785714285657
570,0.0012408214285713878
571,0.00122517857142859
572,0.0011758928571429144
573,0.0011294999999999485
574,0.0011424642857142382
575,0.0011756785714285606
576,0.0011537142857143072
577,0.0011304642857142358
578,0.0011333571428570974
579,0.0011094642857142694
580,0.0011146071428570841
581,0.001133678571428628
582,0.0011351785714286474
583,0.0011401071428571083
584,0.0011471785714284976
585,0.0011602499999999643
586,0.0011730000000000527
587,0.0011444999999999895
588,0.001108178571428604
589,0.0011001428571429273
590,0.0011416071428571278
591,0.0011452500000000755
592,0.0011408571428571943
593,0.0012048214285713804
594,0.0012959999999999638
595,0.001407535714285757
596,0.0015600000000000186
597,0.001729821428571451
598,0.0018599999999999283
599,0.001927178571428507
600,0.0019923214285714865
601,0.001973357142857119
602,0.0017047499999999819
603,0.0013346785714286316
604,0.0010665000000000496
605,0.0009538928571427923
606,0.0009011785714285229
607,0.0008619642857142753
608,0.0008378571428570935
609,0.0008771785714285179
610,0.000967499999999991
611,0.0010496785714286107
612,0.001081928571428646
613,0.001123178571428645
614,0.0011862857142857207
615,0.0011748214285714502
616,0.0011845714285714998
617,0.0011740714285713644
618,0.0011639999999999366
619,0.0011835000000000357
620,0.0012116785714285682
621,0.0012496071428571502
622,0.0012386785714286117
623,0.0012365357142856835
624,0.001269107142857097
625,0.00125517857142852
626,0.0012710357142856716
627,0.0012781071428572132
628,0.0012651428571429234
629,0.0012632142857143488
630,0.0012613928571427989
631,0.001263107142857172
632,0.0012923571428571684
633,0.001293750000000011
634,0.0012888214285713977
635,0.001282499999999942
636,0.0012951428571428534
637,0.0013397142857142694
638,0.0013511785714285399
639,0.0013641428571428296
640,0.0013864285714286137
641,0.0013941428571429121
642,0.001395749999999956
643,0.0014020714285714116
644,0.0014144999999999694
645,0.0014266071428571487
646,0.0014326071428570738
647,0.0014457857142857174
648,0.0014573571428571645
649,0.0014717142857142969
650,0.0014797499999999733
651,0.0014696785714285454
652,0.0014772857142856667
653,0.0015394285714286074
654,0.0015634285714286125
655,0.0015337500000000607
656,0.001524107142857188
657,0.0015499285714285905
658,0.0015957857142856722
659,0.0016156071428571497
660,0.0015736071428572172
661,0.0015293571428571795
662,0.0015336428571428838
663,0.001575428571428615
664,0.001556357142857071
665,0.0015503571428571459
666,0.001550249999999969
667,0.0015403928571428947
668,0.00150664285714284
669,0.0014792142857142413
670,0.0014701071428571007
671,0.001451571428571441
672,0.0014341071428570931
673,0.0014207142857142483
674,0.0013888928571429205
675,0.0013777500000000285
676,0.0013910357142856964
677,0.001352785714285736
678,0.0012952500000000303
679,0.0012983571428570935
680,0.001281000000000075
681,0.001231714285714247
682,0.0012098571428571705
683,0.0012448928571428906
684,0.0012540000000000313
685,0.0011973214285714358
686,0.0011652857142857543
687,0.0011613214285714284
688,0.00118274999999995
689,0.0011821071428571933
690,0.0011495357142857798
691,0.0011510357142856468
692,0.001166678571428597
693,0.0011808214285713753
694,0.0011958214285714165
695,0.001169892857142837
696,0.0011574642857142793
697,0.0011697857142856601
698,0.0012127500000000322
699,0.0012398571428571005
700,0.0012529285714285672
701,0.0012542142857142327
702,0.0012470357142856667
703,0.0012607500000000422
704,0.001292999999999925
705,0.0013119642857142924
706,0.0012986785714286242
707,0.0012433928571428713
708,0.0012598928571429318
709,0.001295892857142787
710,0.0013043571428571709
711,0.0013339285714285458
712,0.0012905357142857707
713,0.0012476785714285756
714,0.001256357142857161
715,0.0013049999999999277
716,0.001333821428571369
717,0.0013097142857143394
718,0.0012922499999999915
719,0.0012901071428572156
720,0.001280357142857166
721,0.0012804642857143428
722,0.0013074642857142343
723,0.0013145357142857758
724,0.0013040357142856404
725,0.0012959999999999638
726,0.0012950357142856765
727,0.001313249999999958
728,0.0013179642857142175
729,0.0012912857142857045
730,0.00129996428571429
731,0.0013353214285713884
732,0.00132439285714285
733,0.0013088571428570767
734,0.0013300714285713968
735,0.0013025357142857734
736,0.0012781071428572132
737,0.0012870000000000002
738,0.0013164642857143502
739,0.0013129285714285797
740,0.001312714285714226
741,0.0013323214285715019
742,0.0013417500000000209
743,0.001331678571428593
744,0.0013049999999999277
745,0.0012838928571427845
746,0.0012488571428572166
747,0.001269750000000006
748,0.0013373571428571397
749,0.0013437857142857724
750,0.0012993214285713808
751,0.0012994285714285577
752,0.0013058571428571904
753,0.001303285714285707
754,0.001297071428571428
755,0.001300500000000022
756,0.0013041428571428173
757,0.0012984642857142704
758,0.0013022142857142427
759,0.001317214285714284
760,0.001281000000000075
761,0.00125700000000007
762,0.001266428571428589
763,0.0012912857142857045
764,0.0013511785714285399
765,0.001322250000000074
766,0.0012990000000000026
767,0.001318285714285748
768,0.0013194642857142368
769,0.0013138928571428668
770,0.0013092857142857843
771,0.0013049999999999277
772,0.0012940714285713893
773,0.0012902142857142403
774,0.001349464285714319
775,0.001381821428571379
776,0.0013652142857142938
777,0.0013398214285714463
778,0.0013613571428571446
779,0.0013852499999999729
780,0.0013858928571428817
781,0.0013907142857143182
782,0.001388999999999945
783,0.0013620000000000537
784,0.0013595357142857471
785,0.001359642857142924
786,0.0013722857142856831
787,0.0013691785714286197
788,0.0013336071428571676
789,0.0012713571428572023
790,0.001274142857142887
791,0.0013129285714285797
792,0.0013039285714286158
793,0.0012917142857142596
794,0.0013041428571428173
795,0.0013201071428571457
796,0.0013207500000000547
797,0.0012924642857143453
798,0.001259678571428578
799,0.0012571071428570946
800,0.0012994285714285577
801,0.0013133571428571348
802,0.0012828214285714725
803,0.0012487500000000398
804,0.0012265714285714323
805,0.0012612857142857742
806,0.0013196785714285906
807,0.0013298571428571953
808,0.0013967142857142431
809,0.001500642857142915
810,0.0015892500000000151
811,0.0017815714285714331
812,0.00199392857142853
813,0.0021042857142856823
814,0.002180142857142846
815,0.002189249999999987
816,0.0019949999999999946
817,0.0016084285714285838
818,0.0012711428571428485
819,0.0011195357142856973
820,0.0010803214285714498
821,0.0010457142857142848
822,0.0009969642857143412
823,0.0009979285714286285
824,0.0010585714285713977
825,0.0011343214285713847
826,0.0011987142857142784
827,0.0012206785714285319
828,0.0012347142857142858
829,0.00129439285714292
830,0.0013296428571428415
831,0.0013460357142857252
832,0.0013370357142857615
833,0.0013251428571427835
834,0.0013368214285714077
835,0.0013405714285713798
836,0.0013326428571428803
837,0.0013436785714285955
838,0.001379464285714249
839,0.0013521428571428272
840,0.0013399285714286232
841,0.00134560714285717
842,0.0013880357142856579
843,0.0014097857142857098
844,0.0013677857142857773
845,0.0013947857142856688
846,0.0014264999999999718
847,0.0014480357142856702
848,0.001465928571428573
849,0.0014334642857143365
850,0.0014027142857143207
851,0.0014417142857142144
852,0.0014870357142857163
853,0.0014496428571428664
854,0.0014386071428571512
855,0.0014943214285714594
856,0.0015049285714286193
857,0.0015020357142857576
858,0.0015199285714285083
859,0.0015263571428571407
860,0.0015390000000000523
861,0.001548642857142925
862,0.0015551785714285821
863,0.0015838928571428467
864,0.0016151785714285946
865,0.0016185000000000116
866,0.0016107857142857135
867,0.0016034999999999704
868,0.0016253571428571994
869,0.001643892857142859
870,0.0016829999999999298
871,0.0017106428571428823
872,0.0016871785714286094
873,0.0016471071428570993
874,0.0016504285714285163
875,0.0017111785714286145
876,0.0017050714285713603
877,0.0016619999999999634
878,0.0016647857142856484
879,0.0016805357142857754
880,0.001677321428571383
881,0.0016770000000000047
882,0.0016599642857142122
883,0.0016350000000000722
884,0.001588071428571374
885,0.0015630000000000572
886,0.001556892857142803
887,0.001541250000000005
888,0.0014998928571428292
889,0.0014569285714286094
890,0.001476214285714355
891,0.0014417142857142144
892,0.0014117142857142844
893,0.0013766785714285643
894,0.0013500000000000512
895,0.0013640357142856527
896,0.001352357142857181
897,0.0013231071428571844
898,0.0012704999999999396
899,0.0012590357142856692
900,0.0012755357142857297
901,0.0012848571428570718
902,0.0012611785714285973
903,0.0012256071428571453
904,0.0012219642857143498
905,0.0012598928571429318
906,0.0012766071428571939
907,0.0012577500000000034
908,0.0012507857142856388
909,0.0012678214285714315
910,0.0012602142857143102
911,0.001222285714285728
912,0.0012094285714286152
913,0.0012478928571429293
914,0.001239642857142899
915,0.0012260357142857004
916,0.0012320357142857777
917,0.001255928571428606
918,0.0012511071428571695
919,0.0012327857142857112
920,0.001224642857142858
921,0.001227964285714275
922,0.0012197142857142446
923,0.001264178571428636
924,0.0012589285714286445
925,0.001224642857142858
926,0.0012320357142857777
927,0.001264178571428636
928,0.0012681428571428097
929,0.0012486428571428629
930,0.001230107142857203
931,0.0012560357142857826
932,0.0012732857142857767
933,0.0012776785714285056
934,0.0012715714285714036
935,0.0012402857142856558
936,0.0012411428571429185
937,0.0012458571428571779
938,0.0012648214285713927
939,0.0012523928571428352
940,0.0012453214285714459
941,0.0012508928571428157
942,0.0012862500000000664
943,0.001291071428571503
944,0.0012610714285714206
945,0.0012509999999999926
946,0.001249714285714327
947,0.0012475714285713987
948,0.0012579642857143572
949,0.0012509999999999926
950,0.0012693214285714508
951,0.0012948214285714752
952,0.0012713571428572023
953,0.0012540000000000313
954,0.0012804642857143428
955,0.0012414642857142967
956,0.0012326785714285343
957,0.0012438214285714264
958,0.0012427499999999624
959,0.001265892857142857
960,0.0012377142857143246
961,0.0012394285714285454
962,0.0012834642857142294
963,0.0012766071428571939
964,0.001271892857142782
965,0.001258499999999937
966,0.001250250000000059
967,0.0012386785714286117
968,0.0012378214285715015
969,0.0012233571428571922
970,0.00122839285714283
971,0.0012755357142857297
972,0.0012990000000000026
973,0.0012895714285714836
974,0.001275321428571376
975,0.0012540000000000313
976,0.001236321428571482
977,0.0012587142857142907
978,0.0012785357142857683
979,0.0012587142857142907
980,0.0012474642857142218
981,0.0012459642857143547
982,0.0012714642857142267
983,0.0012621428571428846
984,0.0012445714285713601
985,0.0012778928571428594
986,0.0012895714285714836
987,0.0012901071428572156
988,0.001270928571428647
989,0.0012290357142857391
990,0.0012575357142856499
991,0.0013074642857142343
992,0.0013061785714285686
993,0.0012906428571427954
994,0.0012940714285713893
995,0.0013261071428570708
996,0.001337892857142872
997,0.0013436785714285955
998,0.0013704642857142854
999,0.0013951071428571992
1000,0.0013626428571428104
1001,0.0013347857142856562
1002,0.0013094999999999856
1003,0.0012738214285713566
1004,0.0012683571428571635
1005,0.0012722142857143127
1006,0.0012706071428571163
1007,0.0012711428571428485
1008,0.0012393214285713685
1009,0.0012443571428571586
1010,0.0012656785714285032
1011,0.0012577500000000034
1012,0.0012609642857142438
1013,0.0012800357142857877
1014,0.0012618214285713542
1015,0.0012481071428571309
1016,0.0012523928571428352
1017,0.0012347142857142858
1018,0.0012315000000000457
1019,0.001240714285714211
1020,0.0012364285714285066
1021,0.001211892857142922
1022,0.0012370714285714155
1023,0.0013300714285713968
1024,0.0014356071428571124
1025,0.0015706071428571785
1026,0.0016993928571428134
1027,0.0018217499999999681
1028,0.0019777500000000003
1029,0.002055642857142916
1030,0.00205757142857149
1031,0.001990071428571381
1032,0.0017488928571428428
1033,0.0013903928571427876
1034,0.0011097857142856478
1035,0.0010370357142856993
1036,0.0010291071428571996
1037,0.0009763928571429302
1038,0.0009473571428571351
1039,0.00099492857142859
1040,0.0010535357142857599
1041,0.0011290714285713932
1042,0.001196678571428527
1043,0.0012358928571429269
1044,0.001251321428571371
1045,0.0012581785714285588
1046,0.0013227857142856538
1047,0.0013415357142856671
1048,0.0013214999999999883
1049,0.0012801428571428122
1050,0.0012933214285714557
1051,0.001320964285714256
1052,0.0013607142857142358
1053,0.001382357142857111
1054,0.0013417500000000209
1055,0.0013753928571428986
1056,0.0014137500000000359
1057,0.0013971428571427985
1058,0.0013781785714285836
1059,0.0013685357142857108
1060,0.001380214285714335
1061,0.0013998214285714588
1062,0.001390178571428586
1063,0.001413535714285682
1064,0.0014182499999999417
1065,0.0014238214285714637
1066,0.0014298214285713888
1067,0.0014315357142857619
1068,0.0014445000000000516
1069,0.0014346428571428253
1070,0.001477178571428642
1071,0.0015238928571428341
1072,0.0014911071428570669
1073,0.0014876785714286252
1074,0.0015129642857142959
1075,0.0015152142857142487
1076,0.001531285714285754
1077,0.0015767142857142805
1078,0.0016024285714285062
1079,0.0015991071428570892
1080,0.001575964285714347
1081,0.001561928571428593
1082,0.0015855000000000428
1083,0.0016063928571428323
1084,0.0016163571428570833
1085,0.0016363928571429146
1086,0.0016538571428571102
1087,0.001674535714285698
1088,0.0016716428571428362
1089,0.0016576071428570825
1090,0.001660607142857121
1091,0.0016299642857142821
1092,0.0016047857142857884
1093,0.0016448571428571463
1094,0.0016508571428570714
1095,0.0016417499999999308
1096,0.0016167857142856386
1097,0.0016078928571428516
1098,0.0016036071428571473
1099,0.0015872142857142636
1100,0.0015696428571428912
1101,0.0015528214285714524
1102,0.0015147857142856936
1103,0.0014784642857143078
1104,0.0014783571428571309
1105,0.0014335714285713611
1106,0.0013860000000000586
1107,0.0013796785714286029
1108,0.0013521428571428272
1109,0.0013710000000000174
1110,0.001335428571428565
1111,0.001298250000000069
1112,0.0012996428571429115
1113,0.0012866785714286217
1114,0.0012870000000000002
1115,0.001281000000000075
1116,0.0012643928571428376
1117,0.001247999999999954
1118,0.0012371785714285924
1119,0.001205678571428643
1120,0.001162071428571362
1121,0.0012062142857142228
1122,0.0012432857142856944
1123,0.0012101785714285487
1124,0.0012034285714285378
1125,0.0011935714285714637
1126,0.0011912142857143338
1127,0.0012140357142856979
1128,0.001222285714285728
1129,0.0012160714285714494
1130,0.0012528214285713903
1131,0.0012453214285714459
1132,0.0011835000000000357
1133,0.0011747142857142733
1134,0.001201285714285762
1135,0.0012032142857143365
1136,0.0011944285714285741
1137,0.0011792142857143314
1138,0.0011630357142856493
1139,0.0012110357142856591
1140,0.0012731785714286
1141,0.0012811071428570995
1142,0.001251749999999926
1143,0.0012035357142857147
1144,0.0012021428571428723
1145,0.0012297857142856727
1146,0.0012169285714285598
1147,0.0012237857142857475
1148,0.001217249999999938
1149,0.0012088928571428832
1150,0.0012200357142857752
1151,0.0011993571428571873
1152,0.0012025714285714274
1153,0.0012110357142856591
1154,0.0012258214285714988
1155,0.001236321428571482
1156,0.0012325714285713575
1157,0.0012191785714285126
1158,0.0012003214285714746
1159,0.0012088928571428832
1160,0.0012353571428571947
1161,0.0012325714285713575
1162,0.001221214285714264
1163,0.0012062142857142228
1164,0.0012281785714286287
1165,0.001211785714285745
1166,0.0011817857142856626
1167,0.0012101785714285487
1168,0.0011924999999999995
1169,0.0011916428571428891
1170,0.0012023571428570736
1171,0.0012196071428570677
1172,0.0012384642857142581
1173,0.0012147857142857836
1174,0.0011814642857142844
1175,0.0011885357142856735
1176,0.0012020357142856954
1177,0.0012019285714285185
1178,0.0012252857142857668
1179,0.001247999999999954
1180,0.0012350357142856642
1181,0.0012262500000000541
1182,0.001183285714285682
1183,0.0011495357142857798
1184,0.0011764285714286466
1185,0.0012241071428571258
1186,0.0012347142857142858
1187,0.0012371785714285924
1188,0.001239535714285722
1189,0.0012327857142857112
1190,0.0012280714285714518
1191,0.0011885357142856735
1192,0.00118778571428574
1193,0.0012335357142856448
1194,0.0012296785714284958
1195,0.0012043928571428251
1196,0.0012131785714285875
1197,0.0012496071428571502
1198,0.0012460714285713794
1199,0.0012338571428571754
1200,0.0012425357142857609
1201,0.0012415714285714736
1202,0.0012342857142857307
1203,0.0012289285714285622
1204,0.001231821428571424
1205,0.0012239999999999489
1206,0.0011865000000000744
1207,0.0011668928571427982
1208,0.0011903571428570712
1209,0.0011907857142857787
1210,0.0011697857142856601
1211,0.001181678571428638
1212,0.0012055714285714662
1213,0.0011891785714285826
1214,0.0011676428571428842
1215,0.0011584285714285665
1216,0.0011767500000000248
1217,0.00119335714285711
1218,0.0011944285714285741
1219,0.0011919642857142674
1220,0.0011921785714286211
1221,0.0011787857142857763
1222,0.0011567142857143457
1223,0.0011480357142857603
1224,0.0011695714285714586
1225,0.0012086785714285294
1226,0.0012934285714286326
1227,0.0014165357142857209
1228,0.001538035714285765
1229,0.0016721785714285684
1230,0.001793999999999991
1231,0.0018851785714285743
1232,0.0019024285714285684
1233,0.0018370714285713876
1234,0.001619464285714299
1235,0.0012956785714285854
1236,0.0010584642857142208
1237,0.0009642857142857508
1238,0.0009576428571429168
1239,0.000938999999999928
1240,0.0009302142857143179
1241,0.0009018214285714318
1242,0.0009341785714286439
1243,0.0009983571428571838
1244,0.001057178571428555
1245,0.0011150357142856392
1246,0.0011639999999999366
1247,0.0011915357142857123
1248,0.0012195000000000432
1249,0.0012501428571428822
1250,0.0012244285714285042
1251,0.0012137142857143195
1252,0.001246928571428642
1253,0.0012781071428572132
1254,0.001266428571428589
1255,0.0012854999999999807
1256,0.0013252499999999604
1257,0.0013022142857142427
1258,0.001283142857142851
1259,0.00129439285714292
1260,0.0013245000000000268
1261,0.001341107142857112
1262,0.0013402500000000016
1263,0.0013369285714285846
1264,0.0013339285714285458
1265,0.001342285714285753
1266,0.001337785714285695
1267,0.0013361785714284989
1268,0.0013713214285713958
1269,0.0013865357142856384
1270,0.0013593214285713934
1271,0.0013574999999999956
1272,0.0013994999999999281
1273,0.0014352857142857342
1274,0.0014318571428571403
1275,0.001416857142857099
1276,0.0014240357142856653
1277,0.0014433214285714108
1278,0.001440321428571372
1279,0.0014633571428570896
1280,0.0014613214285714906
1281,0.0014882142857143574
1282,0.0015569999999999798
1283,0.001578750000000032
1284,0.0015694285714285376
1285,0.0015712499999999351
1286,0.0015643928571428998
1287,0.0015712499999999351
1288,0.00157264285714293
1289,0.001578107142857123
1290,0.0015800357142856975
1291,0.0015430714285714028
1292,0.0015789642857142335
1293,0.0016188214285713899
1294,0.0015979285714286006
1295,0.0015800357142856975
1296,0.0015609642857143057
1297,0.0015700714285714465
1298,0.0015322500000000414
1299,0.0015177857142857321
1300,0.0015243214285713895
1301,0.0015071785714285723
1302,0.0014758928571428243
1303,0.0014413928571428362
1304,0.0014167500000000744
1305,0.001390178571428586
1306,0.0013640357142856527
1307,0.0013286785714285542
1308,0.0013224642857142753
1309,0.0013235357142857395
1310,0.0012936428571428342
1311,0.0012738214285713566
1312,0.0012254999999999684
1313,0.0012235714285713938
1314,0.0012305357142857584
1315,0.001194535714285751
1316,0.001174500000000072
1317,0.001191750000000066
1318,0.0011736428571428093
1319,0.00117717857142858
1320,0.0011506071428570915
1321,0.0011177142857142996
1322,0.00112917857142857
1323,0.001169892857142837
1324,0.0011773928571427814
1325,0.00113657142857149
1326,0.0011060357142856755
1327,0.0010993928571428415
1328,0.0011161071428571034
1329,0.001108071428571427
1330,0.0011181428571428549
1331,0.0011223214285713823
1332,0.0011115000000000209
1333,0.001123071428571468
1334,0.0011065714285714075
1335,0.0011115000000000209
1336,0.0011103214285713798
1337,0.001130357142857211
1338,0.0011507142857142684
1339,0.0011102142857143552
1340,0.0011270357142856419
1341,0.0011183571428572086
1342,0.001098642857142908
1343,0.0011428928571427933
1344,0.001155428571428528
1345,0.0011647500000000223
1346,0.001153821428571484
1347,0.0011317500000000535
1348,0.001117499999999946
1349,0.0011309999999999678
1350,0.0011661428571428647
1351,0.0011615357142857822
1352,0.0011695714285714586
1353,0.0011485714285714925
1354,0.0011399999999999316
1355,0.001146535714285741
1356,0.0011395714285713763
1357,0.0011401071428571083
1358,0.0011305714285714127
1359,0.001139892857142907
1360,0.001160571428571495
1361,0.0011801785714286187
1362,0.0011776071428571352
1363,0.0011509285714286221
1364,0.0011434285714285255
1365,0.0011366785714285144
1366,0.0011440714285714344
1367,0.0011371071428570698
1368,0.0011109642857142887
1369,0.001111821428571399
1370,0.001133678571428628
1371,0.0011455714285714537
1372,0.001143750000000056
1373,0.001140428571428639
1374,0.001119214285714319
1375,0.0011076428571428717
1376,0.0011401071428571083
1377,0.0011706428571429228
1378,0.0011589642857142987
1379,0.0011410714285713956
1380,0.0011471785714284976
1381,0.0011583214285713897
1382,0.0011779285714285136
1383,0.001183928571428591
1384,0.0011682857142856409
1385,0.0011957142857142397
1386,0.0012082499999999743
1387,0.001194535714285751
1388,0.0011628214285714477
1389,0.0011824285714285717
1390,0.0012010714285714081
1391,0.001218428571428579
1392,0.0012098571428571705
1393,0.00118274999999995
1394,0.0011926071428571764
1395,0.0012055714285714662
1396,0.0011681785714286162
1397,0.0011267142857142635
1398,0.0011188928571427884
1399,0.001127999999999929
1400,0.0011159999999999265
1401,0.0011361428571427825
1402,0.0011797500000000636
1403,0.0011713928571428563
1404,0.0011140714285715044
1405,0.0011011071428572146
1406,0.0011215714285714488
1407,0.0011301428571428573
1408,0.0011261785714285315
1409,0.0011102142857143552
1410,0.0011161071428571034
1411,0.001130357142857211
1412,0.0011092500000000679
1413,0.0010878214285713942
1414,0.0011117142857142222
1415,0.0011752500000000055
1416,0.0012650357142857465
1417,0.0013509642857143385
1418,0.0014648571428571091
1419,0.0016154999999999729
1420,0.0017422500000000088
1421,0.0018420000000000008
1422,0.0019029642857143006
1423,0.0018850714285713974
1424,0.0017169642857143381
1425,0.0014195357142857594
1426,0.0011116071428571978
1427,0.0009442500000000719
1428,0.0008758928571428523
1429,0.0008522142857142256
1430,0.000871607142857148
1431,0.0008589642857142366
1432,0.0008757857142856754
1433,0.0009612857142857122
1434,0.0010623214285713698
1435,0.0010947857142857588
1436,0.0011361428571427825
1437,0.001195607142857215
1438,0.0011887500000000272
1439,0.0011707499999999474
1440,0.001131964285714255
1441,0.0011602499999999643
1442,0.0012122142857143002
1443,0.0012243214285714795
1444,0.0012054642857142893
1445,0.0011992500000000104
1446,0.0012544285714285864
1447,0.0012677142857142546
1448,0.0012411428571429185
1449,0.0012466071428571114
1450,0.0012700714285713843
1451,0.001285928571428536
1452,0.001286464285714268
1453,0.0013135714285714886
1454,0.001286464285714268
1455,0.001249071428571418
1456,0.0012671785714285224
1457,0.0012882857142856657
1458,0.0013142142857142452
1459,0.0013402500000000016
1460,0.0013292142857142864
1461,0.001317750000000016
1462,0.001344964285714261
1463,0.0013666071428571362
1464,0.001369499999999998
1465,0.0013932857142856493
1466,0.001414178571428591
1467,0.0013951071428571992
1468,0.001418142857142917
1469,0.0014792142857142413
1470,0.0014926071428570861
1471,0.0014843571428572082
1472,0.0014651785714286396
1473,0.0014585357142856534
1474,0.001485642857142874
1475,0.001509535714285702
1476,0.0015163928571428897
1477,0.0015467142857143504
1478,0.0015595714285714633
1479,0.0015424285714286461
1480,0.0015317142857143092
1481,0.001533535714285707
1482,0.0015286071428570937
1483,0.0015233571428571022
1484,0.0015341785714286158
1485,0.0015343928571428173
1486,0.0015231428571429006
1487,0.0015074999999999505
1488,0.0014979642857142546
1489,0.0014823214285714567
1490,0.0014648571428571091
1491,0.0014517857142856425
1492,0.0014341071428570931
1493,0.0013722857142856831
1494,0.0013117499999999386
1495,0.0013114285714285602
1496,0.001320964285714256
1497,0.0013330714285714354
1498,0.0012917142857142596
1499,0.0012665357142857658
1500,0.0012572142857142715
1501,0.0012192857142856895
1502,0.0011974285714286127
1503,0.001201178571428585
1504,0.0012022500000000492
1505,0.0011718214285714116
1506,0.0011467499999999425
1507,0.0011338928571428296
1508,0.0011221071428571807
1509,0.0011281071428571059
1510,0.0011163214285714572
1511,0.0010961785714286012
1512,0.001056107142857091
1513,0.0010537499999999612
1514,0.0010922142857142754
1515,0.001103999999999924
1516,0.0010766785714285021
1517,0.001075178571428635
1518,0.001059428571428508
1519,0.00104935714285708
1520,0.0010883571428571262
1521,0.001097892857142822
1522,0.0010516071428571853
1523,0.0010613571428570827
1524,0.001076892857142856
1525,0.0010509642857142764
1526,0.001056642857142823
1527,0.0010648928571428534
1528,0.0010373571428570775
1529,0.0010376785714286082
1530,0.0010816071428571153
1531,0.0011030357142857892
1532,0.0010811785714285602
1533,0.0010524642857142957
1534,0.0010770000000000328
1535,0.0011093571428570925
1536,0.0010990714285714631
1537,0.0010900714285714994
1538,0.001065107142857207
1539,0.0010578214285714641
1540,0.0010475357142856825
1541,0.0010565357142856462
1542,0.001100249999999952
1543,0.0011010000000000377
1544,0.0010857857142856427
1545,0.001056214285714268
1546,0.0010491428571428787
1547,0.0010344642857142159
1548,0.0010341428571428374
1549,0.0010697142857142897
1550,0.0010749642857142813
1551,0.001073571428571439
1552,0.0010895357142857672
1553,0.0010686428571428255
1554,0.0010609285714285274
1555,0.0010503214285713673
1556,0.001047857142857213
1557,0.0010859999999999965
1558,0.00105171428571421
1559,0.0009975000000000734
1560,0.0010168928571428434
1561,0.001076785714285679
1562,0.001044428571428619
1563,0.0010457142857142848
1564,0.001076785714285679
1565,0.001070785714285754
1566,0.00106735714285716
1567,0.001060071428571417
1568,0.001061250000000058
1569,0.0010432499999999782
1570,0.0010385357142857186
1571,0.0010504285714285442
1572,0.0010342500000000143
1573,0.00102675000000007
1574,0.0010708928571429308
1575,0.0010430357142857767
1576,0.0010147500000000675
1577,0.0010291071428571996
1578,0.0010582500000000192
1579,0.0010655357142857623
1580,0.001028249999999937
1581,0.0010036071428571754
1582,0.0010584642857142208
1583,0.001053857142857138
1584,0.0010676785714285382
1585,0.0010906071428570792
1586,0.0010814999999999384
1587,0.0010744285714285493
1588,0.001082999999999958
1589,0.00106178571428579
1590,0.0010548214285714254
1591,0.001055571428571359
1592,0.001030607142857219
1593,0.0010111071428571198
1594,0.001027178571428625
1595,0.0010307142857142436
1596,0.0009942857142856809
1597,0.0010250357142856969
1598,0.0010262142857143377
1599,0.0009844285714286068
1600,0.0010124999999999622
1601,0.0010614642857142596
1602,0.0010537499999999612
1603,0.0010610357142857043
1604,0.001038964285714274
1605,0.0009933214285713936
1606,0.000990321428571355
1607,0.001004249999999932
1608,0.0010011428571428686
1609,0.0010265357142857162
1610,0.0010972500000000654
1611,0.0012006428571428528
1612,0.0012571071428570946
1613,0.0013610357142857664
1614,0.0015432857142857566
1615,0.0017370000000000172
1616,0.0018121071428570954
1617,0.0018077142857142142
1618,0.0017730000000000246
1619,0.0015928928571428103
1620,0.001298250000000069
1621,0.0010119642857142302
1622,0.000865500000000046
1623,0.0008142857142856436
1624,0.0007543928571428081
1625,0.0007339285714285738
1626,0.0007664999999999875
1627,0.0008089285714286275
1628,0.000894964285714244
1629,0.0009838928571428746
1630,0.0010257857142857826
1631,0.0010336071428571055
1632,0.001032107142857086
1633,0.0010459285714286386
1634,0.0010862142857143502
1635,0.0010837500000000437
1636,0.0010622142857143453
1637,0.001085142857142886
1638,0.0010776428571427894
1639,0.0010607142857143258
1640,0.0010652142857142317
1641,0.0010942500000000268
1642,0.0011065714285714075
1643,0.0011078571428570732
1644,0.0011240357142857553
1645,0.001124678571428512
1646,0.001138071428571357
1647,0.0011272499999999954
1648,0.0011201785714286064
1649,0.0011434285714285255
1650,0.0011676428571428842
1651,0.0011244642857143106
1652,0.0011088214285713605
1653,0.0011470714285714732
1654,0.0011858571428571656
1655,0.0012023571428570736
1656,0.0011817857142856626
1657,0.0011818928571428395
1658,0.0012116785714285682
1659,0.001218428571428579
1660,0.001215214285714339
1661,0.0012029999999999827
1662,0.001241892857142852
1663,0.0012755357142857297
1664,0.0012862500000000664
1665,0.0012883928571428426
1666,0.0012949285714284997
1667,0.001279714285714257
1668,0.0013086428571428752
1669,0.001343892857142797
1670,0.0013624285714286088
1671,0.0013671428571428684
1672,0.0013733571428571473
1673,0.001385678571428528
1674,0.0013725000000000369
1675,0.001401321428571478
1676,0.0014032500000000527
1677,0.001365642857142849
1678,0.001359000000000015
1679,0.0013780714285714067
1680,0.001404750000000072
1681,0.0014143928571427925
1682,0.0013742142857142577
1683,0.0013153928571428863
1684,0.0013002857142856681
1685,0.0012962142857143176
1686,0.001271999999999959
1687,0.001285821428571359
1688,0.0012788571428571467
1689,0.001274785714285644
1690,0.001255821428571429
1691,0.0011987142857142784
1692,0.001169464285714282
1693,0.001133250000000073
1694,0.0011427857142857687
1695,0.0011374285714286004
1696,0.0010821428571428475
1697,0.0010390714285714506
1698,0.0010269642857142713
1699,0.00102675000000007
1700,0.0010429285714285998
1701,0.0010364999999999671
1702,0.0010258928571428073
1703,0.000988821428571488
1704,0.0009760714285713996
1705,0.0009792857142856398
1706,0.0009663214285715022
1707,0.0009861428571428276
1708,0.0009947142857142362
1709,0.000994178571428504
1710,0.0010041428571429074
1711,0.000988714285714311
1712,0.0009631071428571099
1713,0.0009578571428571183
1714,0.0009478928571428672
1715,0.0009485357142857762
1716,0.0009560357142857206
1717,0.0009999642857142278
1718,0.0010120714285714071
1719,0.0009891428571428662
1720,0.000970285714285676
1721,0.0009829285714285873
1722,0.0009886071428571342
1723,0.0009735000000000684
1724,0.0009991071428571174
1725,0.0010209642857143461
1726,0.001018714285714241
1727,0.0009881785714285789
1728,0.0010034999999999985
1729,0.0010100357142856556
1730,0.0009861428571428276
1731,0.0010137857142857802
1732,0.0010194642857143269
1733,0.0010203214285714373
1734,0.0010158214285713792
1735,0.001007678571428526
1736,0.001011535714285675
1737,0.0010050000000000178
1738,0.0010068214285714155
1739,0.0010084285714286117
1740,0.0010223571428571887
1741,0.0010303928571428653
1742,0.0009805714285714576
1743,0.0009530357142856819
1744,0.0009789642857142614
1745,0.0009927857142856616
1746,0.001006607142857214
1747,0.001011535714285675
1748,0.0009972857142857196
1749,0.0009991071428571174
1750,0.0010145357142857137
1751,0.0010207499999999926
1752,0.0010100357142856556
1753,0.0009935357142857473
1754,0.0009598928571428697
1755,0.0009732857142857146
1756,0.0010346785714285696
1757,0.0010153928571428241
1758,0.0009901071428571535
1759,0.0009984642857143607
1760,0.0010198928571428822
1761,0.001016035714285733
1762,0.0009636428571428419
1763,0.0009726428571428058
1764,0.0010050000000000178
1765,0.0009861428571428276
1766,0.0009714642857143169
1767,0.0009799285714285487
1768,0.0009835714285714964
1769,0.00098753571428567
1770,0.0010040357142857305
1771,0.0010096071428571005
1772,0.000992678571428637
1773,0.0009963214285714323
1774,0.0010040357142857305
1775,0.0009860357142856507
1776,0.0009691071428571872
1777,0.001004785714285664
1778,0.0010650000000000301
1779,0.001062857142857102
1780,0.0010234285714285005
1781,0.0010078928571428797
1782,0.001019249999999973
1783,0.0010436785714285333
1784,0.0010638214285713893
1785,0.0010886785714285046
1786,0.0010903928571428776
1787,0.0010774285714285879
1788,0.0010613571428570827
1789,0.0010644642857142981
1790,0.0010755000000000133
1791,0.0011145000000000595
1792,0.0011276785714285508
1793,0.0011008928571428608
1794,0.0010899642857143226
1795,0.0010983214285713774
1796,0.0011271428571428186
1797,0.0011195357142856973
1798,0.001103999999999924
1799,0.0010792499999999856
1800,0.0010398214285713843
1801,0.0010408928571428483
1802,0.0010463571428571937
1803,0.001043892857142887
1804,0.001053321428571406
1805,0.00102492857142852
1806,0.0010087499999999901
1807,0.001033285714285727
1808,0.001042714285714246
1809,0.001029535714285755
1810,0.0010426071428570691
1811,0.0010408928571428483
1812,0.001046785714285749
1813,0.0010437857142857102
1814,0.0010391785714286275
1815,0.0010150714285714457
1816,0.0010161428571429099
1817,0.0010743214285713724
1818,0.0011329285714285423
1819,0.0012110357142856591
1820,0.001327178571428535
1821,0.0014842500000000313
1822,0.0016418571428571077
1823,0.0017760000000000633
1824,0.0018880714285714362
1825,0.001957928571428523
1826,0.0018721071428571077
1827,0.0015785357142856782
1828,0.00120900000000006
1829,0.0009415714285714115
1830,0.0008434285714286156
1831,0.0008168571428571271
1832,0.0007646785714285897
1833,0.0007706785714285149
1834,0.0008101071428571162
1835,0.0008601428571428776
1836,0.0009548571428570796
1837,0.001039500000000006
1838,0.0010791428571428087
1839,0.0010761428571429224
1840,0.001047321428571481
1841,0.0010563214285714449
1842,0.001087928571428571
1843,0.001115249999999993
1844,0.0011467499999999425
1845,0.0011429999999999702
1846,0.0011500714285713595
1847,0.001142035714285683
1848,0.001133250000000073
1849,0.001143750000000056
1850,0.001146535714285741
1851,0.0011575714285714561
1852,0.001178892857142801
1853,0.0011701071428571908
1854,0.0011719285714285885
1855,0.0011992500000000104
1856,0.001227964285714275
1857,0.0012352500000000178
1858,0.0012337499999999985
1859,0.0012409285714285647
1860,0.0012332142857142665
1861,0.0012115714285713913
1862,0.001213499999999966
1863,0.0012476785714285756
1864,0.0012968571428570743
1865,0.001302107142857218
1866,0.0012912857142857045
1867,0.0012923571428571684
1868,0.0013062857142857455
1869,0.0013218214285713665
1870,0.0013376785714285181
1871,0.0013492499999999653
1872,0.0013207500000000547
1873,0.0013179642857142175
1874,0.001369071428571443
1875,0.0014014285714285027
1876,0.0014517857142856425
1877,0.0014952857142857465
1878,0.0014785714285714846
1879,0.0014268214285715025
1880,0.0014419285714285682
1881,0.001468821428571435
1882,0.0014802857142857055
1883,0.0014899285714285782
1884,0.0014802857142857055
1885,0.0014943214285714594
1886,0.0015007499999999396
1887,0.0014930357142856415
1888,0.0014898214285714014
1889,0.001499571428571451
1890,0.0014857500000000508
1891,0.0014584285714286287
1892,0.00144482142857143
1893,0.001403678571428608
1894,0.0013953214285714007
1895,0.0013775357142856747
1896,0.0013708928571428405
1897,0.0013722857142856831
1898,0.0013537500000000233
1899,0.0013213928571428114
1900,0.0012926785714285469
1901,0.00125517857142852
1902,0.0012226071428571065
1903,0.0011824285714285717
1904,0.0011912142857143338
1905,0.001174392857142895
1906,0.0011482499999999618
1907,0.0011564999999999922
1908,0.0011189999999999653
1909,0.0011289642857142163
1910,0.0011473928571428514
1911,0.0011216785714286256
1912,0.0011266071428570866
1913,0.0011250000000000426
1914,0.0010865357142857287
1915,0.0010549285714286023
1916,0.0010535357142857599
1917,0.001064035714285743
1918,0.0010639285714285661
1919,0.0010616785714286131
1920,0.0010516071428571853
1921,0.001053857142857138
1922,0.0010435714285713564
1923,0.0010426071428570691
1924,0.0010697142857142897
1925,0.0010682142857142704
1926,0.0010569642857143537
1927,0.0010530000000000277
1928,0.0010647857142856766
1929,0.0010711071428571321
1930,0.0010775357142857648
1931,0.0010809642857143587
1932,0.001102071428571502
1933,0.0010934999999999409
1934,0.001079571428571364
1935,0.0010690714285713809
1936,0.0010652142857142317
1937,0.0010789285714286072
1938,0.0010807500000000049
1939,0.0010963928571428028
1940,0.0011044285714286316
1941,0.0011044285714286316
1942,0.0011043214285714547
1943,0.0010782857142856983
1944,0.0010841785714285988
1945,0.0011100000000000014
1946,0.001123178571428645
1947,0.0011221071428571807
1948,0.0011075357142856948
1949,0.001107428571428518
1950,0.0011186785714285869
1951,0.0011043214285714547
1952,0.001111821428571399
1953,0.0011183571428572086
1954,0.0010743214285713724
1955,0.001064571428571475
1956,0.0010807500000000049
1957,0.0010966071428571565
1958,0.0011165357142856587
1959,0.001120821428571363
1960,0.0011146071428570841
1961,0.0011120357142857529
1962,0.0011153571428571699
1963,0.0010857857142856427
1964,0.0010816071428571153
1965,0.0010916785714285434
1966,0.0011097857142856478
1967,0.0011127857142856864
1968,0.001103571428571369
1969,0.0011069999999999628
1970,0.0010807500000000049
1971,0.001055571428571359
1972,0.001057285714285732
1973,0.0011045357142856563
1974,0.0011573571428571026
1975,0.0011363571428571362
1976,0.0011214642857142719
1977,0.0011355000000000258
1978,0.0011206071428571615
1979,0.0011155714285713714
1980,0.0011136428571427968
1981,0.0011048571428571867
1982,0.0011046428571428331
1983,0.0011255357142857746
1984,0.0011686071428571715
1985,0.0011645357142856686
1986,0.0011382857142857108
1987,0.0011478214285714067
1988,0.001138178571428534
1989,0.0011273571428571723
1990,0.0011373214285714235
1991,0.0011491071428570722
1992,0.0011613214285714284
1993,0.0012035357142857147
1994,0.0012460714285713794
1995,0.0012352500000000178
1996,0.0012042857142856482
1997,0.0011859642857143424
1998,0.0011621785714285389
1999,0.0011385000000000644
2000,0.0011313214285714984
2001,0.001106892857142786
2002,0.0010901785714285239
2003,0.0010726071428571516
2004,0.001064571428571475
2005,0.0010861071428571734
2006,0.0011187857142857637
2007,0.0011564999999999922
2008,0.0011385000000000644
2009,0.0010862142857143502
2010,0.0010891071428572121
2011,0.0011150357142856392
2012,0.0011218928571428272
2013,0.0011121428571429298
2014,0.0011016428571427944
2015,0.0010803214285714498
2016,0.0010757142857142148
2017,0.001069499999999936
2018,0.0011042142857142778
2019,0.001187142857142831
2020,0.0012944999999999446
2021,0.0014261785714285934
2022,0.0015775714285713909
2023,0.001740535714285788
2024,0.0018782142857142097
2025,0.0019325357142856753
2026,0.0019442142857142995
2027,0.0018629999999999671
2028,0.0015651428571428333
2029,0.001187142857142831
2030,0.000984214285714253
2031,0.0009366428571427983
2032,0.0008790000000000679
2033,0.0008241428571428701
2034,0.0008260714285714447
2035,0.0008837142857143274
2036,0.0009332142857143566
2037,0.000995892857142877
2038,0.0010909285714286096
2039,0.0011341071428571834
2040,0.0011480357142857603
2041,0.0011614285714286053
2042,0.0011567142857143457
2043,0.001163892857142912
2044,0.0011702142857142155
2045,0.001186071428571367
2046,0.001197107142857082
2047,0.0011960357142857703
2048,0.0012002142857142977
2049,0.001196142857142795
2050,0.0011784642857142456
2051,0.0011929285714285546
2052,0.0012231428571428385
2053,0.0012304285714285815
2054,0.0012262500000000541
2055,0.001275749999999931
2056,0.0013056428571428366
2057,0.0013026428571427978
2058,0.0012762857142856632
2059,0.0012688928571428957
2060,0.0012589285714286445
2061,0.0012887142857142208
2062,0.001316035714285643
2063,0.001305428571428635
2064,0.001328892857142908
2065,0.001332214285714325
2066,0.0013128214285714028
2067,0.0013068214285714777
2068,0.0013642500000000065
2069,0.001372928571428592
2070,0.0013340357142857227
2071,0.0013736785714285255
2072,0.0014290714285714553
2073,0.0014819999999999263
2074,0.00146603571428575
2075,0.0014494285714285126
2076,0.0014540357142857475
2077,0.001462178571428601
2078,0.0015030000000000449
2079,0.0015139285714285832
2080,0.0014929285714286168
2081,0.001506107142857108
2082,0.001553571428571386
2083,0.0015597857142856649
2084,0.0015632142857142587
2085,0.001548642857142925
2086,0.0015425357142856708
2087,0.0015728571428571315
2088,0.0015565714285714247
2089,0.0015038571428571553
2090,0.0014837142857142994
2091,0.0015045000000000642
2092,0.0015082500000000363
2093,0.0014868214285713626
2094,0.001468285714285703
2095,0.001445464285714339
2096,0.0014211428571428034
2097,0.0013943571428571134
2098,0.0013747499999999897
2099,0.0013659642857142273
2100,0.0013291071428571096
2101,0.001242428571428584
2102,0.0012018214285714939
2103,0.0012294642857142942
2104,0.0012713571428572023
2105,0.0012199285714285983
2106,0.0011701071428571908
2107,0.0011548928571427958
2108,0.0011443928571428128
2109,0.0011346428571429154
2110,0.0011128928571428633
2111,0.0011167500000000125
2112,0.0011142857142857057
2113,0.00109414285714285
2114,0.0010800000000000714
2115,0.001086321428571375
2116,0.001083964285714245
2117,0.001084714285714331
2118,0.0010652142857142317
2119,0.0010570714285713784
2120,0.0010653214285714085
2121,0.0010704642857142233
2122,0.0010496785714286107
2123,0.0010153928571428241
2124,0.0010293214285714012
2125,0.001046678571428572
2126,0.001080214285714273
2127,0.001049464285714257
2128,0.0010240714285714096
2129,0.001031571428571354
2130,0.0010760357142857455
2131,0.0010977857142856452
2132,0.0010639285714285661
2133,0.0010622142857143453
2134,0.001063392857142834
2135,0.0010448571428571744
2136,0.0010796785714285407
2137,0.001087392857142839
2138,0.0010565357142856462
2139,0.001062749999999925
2140,0.0010865357142857287
2141,0.001076785714285679
2142,0.0010765714285714775
2143,0.0010781785714285214
2144,0.0010591071428571297
2145,0.0010487142857143234
2146,0.0010696071428571128
2147,0.0010861071428571734
2148,0.0011004642857143055
2149,0.001105714285714297
2150,0.0010943571428572037
2151,0.0010639285714285661
2152,0.0010475357142856825
2153,0.0010659642857143174
2154,0.001079035714285784
2155,0.0010864285714285518
2156,0.001100678571428507
2157,0.0011018571428571481
2158,0.0010486071428571465
2159,0.001023321428571476
2160,0.0010892142857142366
2161,0.0011463214285713872
2162,0.001149857142857158
2163,0.0011241428571429322
2164,0.0011049642857142114
2165,0.0010899642857143226
2166,0.0010866428571429053
2167,0.0011036785714285458
2168,0.001107428571428518
2169,0.001133250000000073
2170,0.0010857857142856427
2171,0.001050642857142898
2172,0.0010709999999999552
2173,0.001073464285714262
2174,0.0010591071428571297
2175,0.0010401428571429148
2176,0.0010537499999999612
2177,0.001066714285714251
2178,0.0010870714285714607
2179,0.001091249999999988
2180,0.0010724999999999747
2181,0.0010791428571428087
2182,0.0010959642857142477
2183,0.0010923214285714522
2184,0.001062857142857102
2185,0.0010503214285713673
2186,0.0010729285714285298
2187,0.0011154642857143468
2188,0.00113657142857149
2189,0.001119321428571496
2190,0.0010752857142856595
2191,0.0010573928571429088
2192,0.0010960714285714243
2193,0.0011449285714285448
2194,0.001140428571428639
2195,0.001157142857142901
2196,0.0011269285714286172
2197,0.0010992857142856647
2198,0.001104107142857101
2199,0.001124678571428512
2200,0.001163892857142912
2201,0.0011885357142856735
2202,0.0011802857142856433
2203,0.0011752500000000055
2204,0.0011552142857143264
2205,0.0011544642857142407
2206,0.0011668928571427982
2207,0.0011487857142856938
2208,0.001130357142857211
2209,0.0010883571428571262
2210,0.001076785714285679
2211,0.0010482857142857683
2212,0.0010329642857143488
2213,0.0010540714285714918
2214,0.0010782857142856983
2215,0.001106892857142786
2216,0.001119214285714319
2217,0.0010927500000000073
2218,0.0010844999999999772
2219,0.001107428571428518
2220,0.0010997142857142198
2221,0.001084714285714331
2222,0.0010732500000000605
2223,0.0010652142857142317
2224,0.0010589999999999528
2225,0.0010711071428571321
2226,0.0010888928571428584
2227,0.0011132142857142417
2228,0.0011763214285714697
2229,0.0012520714285714568
2230,0.0013760357142856552
2231,0.0015387857142856985
2232,0.0016704642857143476
2233,0.001818428571428551
2234,0.0019172142857142558
2235,0.0019436785714285676
2236,0.0018201428571429242
2237,0.0014611071428571368
2238,0.001057928571428641
2239,0.0008687142857142861
2240,0.0008674285714286205
2241,0.0008292857142856848
2242,0.0007608214285714407
2243,0.0007728214285714431
2244,0.0008382857142856487
2245,0.0009347142857142237
2246,0.0009835714285714964
2247,0.0009833571428571426
2248,0.0010111071428571198
2249,0.0010417499999999587
2250,0.0010646785714284997
2251,0.0011022857142857032
2252,0.0011215714285714488
2253,0.0011293928571429238
2254,0.0011228571428571143
2255,0.0011100000000000014
2256,0.0011210357142857168
2257,0.0011471785714284976
2258,0.001129821428571479
2259,0.0011383928571428877
2260,0.0011318571428570782
2261,0.001146535714285741
2262,0.0011807142857143509
2263,0.0011635714285713813
2264,0.001160464285714318
2265,0.0011635714285713813
2266,0.001155857142857083
2267,0.0011615357142857822
2268,0.0011657142857143096
2269,0.001183821428571414
2270,0.001197214285714259
2271,0.0012208928571428856
2272,0.0012381428571428797
2273,0.001227857142857098
2274,0.0012227142857142834
2275,0.0012581785714285588
2276,0.0012738214285713566
2277,0.0012601071428571334
2278,0.0012698571428571828
2279,0.0012756428571429066
2280,0.001283678571428583
2281,0.0013465714285714574
2282,0.0013812857142856468
2283,0.001365642857142849
2284,0.0013332857142857892
2285,0.0013180714285713944
2286,0.0013750714285713681
2287,0.0014256428571428614
2288,0.0014348571428571789
2289,0.001413642857142859
2290,0.0014120357142856628
2291,0.0014244642857142204
2292,0.0014150357142857014
2293,0.001400892857142923
2294,0.001426392857142795
2295,0.0014441785714285212
2296,0.0014528571428571067
2297,0.0014473928571429135
2298,0.001432071428571494
2299,0.0014361428571428446
2300,0.0014427857142856786
2301,0.0014258571428572152
2302,0.001401321428571478
2303,0.0013947857142856688
2304,0.001389642857142854
2305,0.0013601785714285038
2306,0.001334464285714278
2307,0.0012820714285713868
2308,0.0012322499999999792
2309,0.001231714285714247
2310,0.0012322499999999792
2311,0.0012220714285713745
2312,0.0012180000000000238
2313,0.001199464285714212
2314,0.0011664642857142431
2315,0.0011455714285714537
2316,0.001129285714285747
2317,0.0011244642857143106
2318,0.0010841785714285988
2319,0.0010805357142856511
2320,0.0010733571428570851
2321,0.0010379999999999866
2322,0.0010291071428571996
2323,0.001012178571428584
2324,0.000995464285714322
2325,0.0010296428571429316
2326,0.0010512857142856546
2327,0.0010351071428571247
2328,0.001033285714285727
2329,0.0009997500000000262
2330,0.0009819642857143002
2331,0.0009985714285713852
2332,0.0010123928571427853
2333,0.0010224642857142134
2334,0.0010204285714286142
2335,0.0010214999999999261
2336,0.0010362857142857658
2337,0.001057928571428641
2338,0.0010364999999999671
2339,0.0010284642857142908
2340,0.0010451785714285526
2341,0.0010284642857142908
2342,0.001036178571428589
2343,0.0010136785714286033
2344,0.0009952499999999682
2345,0.0010312499999999755
2346,0.0010123928571427853
2347,0.0010302857142856885
2348,0.0010854642857142645
2349,0.0010794642857143394
2350,0.001036178571428589
2351,0.001042178571428514
2352,0.001057928571428641
2353,0.0010412142857142267
2354,0.0010496785714286107
2355,0.0010448571428571744
2356,0.0010240714285714096
2357,0.0010252500000000506
2358,0.0010457142857142848
2359,0.001053428571428583
2360,0.001077321428571411
2361,0.0010675714285713614
2362,0.0010459285714286386
2363,0.001045607142857108
2364,0.0010577142857142873
2365,0.0010329642857143488
2366,0.001009392857142899
2367,0.0010682142857142704
2368,0.0010947857142857588
2369,0.0010737857142856402
2370,0.0010436785714285333
2371,0.0010373571428570775
2372,0.0010589999999999528
2373,0.0010655357142857623
2374,0.0010762499999999468
2375,0.00106735714285716
2376,0.0010516071428571853
2377,0.0010931785714285627
2378,0.001029428571428578
2379,0.0009877500000000238
2380,0.001044428571428619
2381,0.0010833214285714883
2382,0.0010862142857143502
2383,0.0010669285714286047
2384,0.001046785714285749
2385,0.0010636071428571877
2386,0.0010699285714286435
2387,0.001044428571428619
2388,0.0010425000000000447
2389,0.0010497857142857875
2390,0.0010593214285714834
2391,0.0010683214285714473
2392,0.0010542857142856934
2393,0.0010303928571428653
2394,0.0010482857142857683
2395,0.0010546071428570716
2396,0.0010665000000000496
2397,0.0010886785714285046
2398,0.0010916785714285434
2399,0.00109178571428572
2400,0.001087392857142839
2401,0.0010888928571428584
2402,0.0011098928571428245
2403,0.001117607142857123
2404,0.0010990714285714631
2405,0.0011065714285714075
2406,0.0011276785714285508
2407,0.001137000000000045
2408,0.0011463214285713872
2409,0.0011644285714286439
2410,0.0011678571428570855
2411,0.0011524285714286414
2412,0.001129285714285747
2413,0.0011331428571428961
2414,0.0011277857142857276
2415,0.0010752857142856595
2416,0.0010535357142857599
2417,0.0010615714285714362
2418,0.0010791428571428087
2419,0.001050535714285721
2420,0.0010463571428571937
2421,0.001071214285714309
2422,0.0010928571428571842
2423,0.0010699285714286435
2424,0.0010733571428570851
2425,0.001081285714285737
2426,0.001053428571428583
2427,0.0010569642857143537
2428,0.0010276071428571803
2429,0.0010073571428571475
2430,0.0010474285714285056
2431,0.0010688571428571793
2432,0.0010545000000000472
2433,0.0010920000000000738
2434,0.001135392857142849
2435,0.0011977499999999911
2436,0.0013104642857142729
2437,0.001458857142857184
2438,0.0016397142857143315
2439,0.0017887499999999993
2440,0.0018613928571429232
2441,0.0018627857142857656
2442,0.0017691428571428756
2443,0.0014992500000000726
2444,0.0011593928571428538
2445,0.0009299999999999642
2446,0.0008321785714285467
2447,0.0008226428571428508
2448,0.0007808571428571197
2449,0.0007251428571428115
2450,0.0007612499999999959
2451,0.0009064285714285145
2452,0.0009965357142857861
2453,0.001014857142857092
2454,0.0010486071428571465
2455,0.0010570714285713784
2456,0.0010868571428571069
2457,0.0011034642857143443
2458,0.001128750000000015
2459,0.0011299285714285036
2460,0.0011278928571429045
2461,0.0011422500000000367
2462,0.0011471785714284976
2463,0.0011484642857143156
2464,0.0011491071428570722
2465,0.0011998928571429193
2466,0.0012057857142856675
2467,0.0011569285714285473
2468,0.0011503928571428902
2469,0.0011909999999999803
2470,0.0012216428571428192
2471,0.0012241071428571258
2472,0.001211785714285745
2473,0.0011835000000000357
2474,0.0011701071428571908
2475,0.001225714285714322
2476,0.0012545357142857633
2477,0.0012609642857142438
2478,0.0012633214285713735
2479,0.0012781071428572132
2480,0.00129257142857137
2481,0.001275321428571376
2482,0.0012906428571427954
2483,0.0013351071428571869
2484,0.0013308214285714826
2485,0.0013059642857142148
2486,0.0013173214285714606
2487,0.0013549285714285122
2488,0.00137003571428573
2489,0.0013825714285714647
2490,0.001408071428571489
2491,0.0014283214285713696
2492,0.001422000000000066
2493,0.0014491071428571344
2494,0.0014591785714285622
2495,0.0014348571428571789
2496,0.00142360714285711
2497,0.0014620714285714241
2498,0.0014837142857142994
2499,0.001493892857142904
2500,0.0015030000000000449
2501,0.0015224999999999917
2502,0.0015117857142856548
2503,0.0014998928571428292
2504,0.0014976428571428764
2505,0.001480071428571504
2506,0.0014433214285714108
2507,0.0014305714285714746
2508,0.001451571428571441
2509,0.0014507142857143305
2510,0.0014232857142857317
2511,0.0014073214285714032
2512,0.0013939285714285583
2513,0.0013475357142857444
2514,0.0013228928571428307
2515,0.0013018928571428643
2516,0.001303714285714262
2517,0.0012613928571427989
2518,0.0012332142857142665
2519,0.0012145714285714299
2520,0.0011813571428571075
2521,0.001153071428571398
2522,0.0011527500000000199
2523,0.0011695714285714586
2524,0.001153071428571398
2525,0.0011301428571428573
2526,0.0011120357142857529
2527,0.0011428928571427933
2528,0.001131428571428523
2529,0.0011014285714285928
2530,0.0010928571428571842
2531,0.0010871785714286375
2532,0.0010793571428571625
2533,0.0010942500000000268
2534,0.001097464285714267
2535,0.0011098928571428245
2536,0.0010967142857143334
2537,0.0010888928571428584
2538,0.0010786071428570767
2539,0.0010930714285713858
2540,0.0010886785714285046
2541,0.001076785714285679
2542,0.001069499999999936
2543,0.001057178571428555
2544,0.0010723928571427978
2545,0.0010983214285713774
2546,0.0011075357142856948
2547,0.0011032499999999905
2548,0.0010876071428571926
2549,0.0010925357142856538
2550,0.0010838571428570683
2551,0.0010811785714285602
2552,0.0011072142857143166
2553,0.0011030357142857892
2554,0.0010928571428571842
2555,0.0010788214285714303
2556,0.0011063571428572062
2557,0.0011368928571428682
2558,0.0011271428571428186
2559,0.0010931785714285627
2560,0.0010836428571428668
2561,0.0011215714285714488
2562,0.001139892857142907
2563,0.0011203928571428077
2564,0.0011062500000000293
2565,0.0011121428571429298
2566,0.0011186785714285869
2567,0.0011084999999999821
2568,0.001101321428571416
2569,0.0011138571428571506
2570,0.0011247857142856889
2571,0.0011026071428570817
2572,0.00108353571428569
2573,0.00109414285714285
2574,0.001133250000000073
2575,0.0011343214285713847
2576,0.0011269285714286172
2577,0.0011300357142856805
2578,0.0011177142857142996
2579,0.0011289642857142163
2580,0.0011245714285714875
2581,0.0011159999999999265
2582,0.0011283214285714596
2583,0.0010926428571428305
2584,0.001062857142857102
2585,0.0011274642857143492
2586,0.001159928571428586
2587,0.0011010000000000377
2588,0.001109035714285714
2589,0.001117499999999946
2590,0.0011273571428571723
2591,0.0011533928571429287
2592,0.001143750000000056
2593,0.0011248928571428657
2594,0.0011130000000000402
2595,0.0011327142857143408
2596,0.0011276785714285508
2597,0.001138178571428534
2598,0.00116335714285718
2599,0.0011500714285713595
2600,0.0011313214285714984
2601,0.0011523214285714645
2602,0.0011586428571429203
2603,0.0011506071428570915
2604,0.0011555357142857049
2605,0.0011503928571428902
2606,0.0011912142857143338
2607,0.0012084642857143279
2608,0.0012025714285714274
2609,0.0011906785714286018
2610,0.001181035714285729
2611,0.0011814642857142844
2612,0.0011462142857142103
2613,0.0011172857142857445
2614,0.0010964999999999797
2615,0.0010805357142856511
2616,0.0011311071428571446
2617,0.0011463214285713872
2618,0.0011294999999999485
2619,0.001142678571428592
2620,0.0011478214285714067
2621,0.0011242499999999569
2622,0.0010958571428570708
2623,0.0011203928571428077
2624,0.0011201785714286064
2625,0.0011016428571427944
2626,0.0011282142857142827
2627,0.0011116071428571978
2628,0.0011109642857142887
2629,0.0011486785714285171
2630,0.0011503928571428902
2631,0.0011955000000000381
2632,0.001294285714285743
2633,0.0013652142857142938
2634,0.0014836071428571225
2635,0.0016073571428571196
2636,0.0016848214285714797
2637,0.001759821428571381
2638,0.0018334285714285922
2639,0.0018092142857142335
2640,0.001591499999999968
2641,0.0012441428571428048
2642,0.001002750000000065
2643,0.0008982857142856611
2644,0.0008783571428571589
2645,0.0008752499999999433
2646,0.0008691428571428413
2647,0.000857035714285662
2648,0.0008812500000000207
2649,0.0009526071428571267
2650,0.0010502142857143429
2651,0.0010859999999999965
2652,0.0010954285714285155
2653,0.0011462142857142103
2654,0.0011546785714285945
2655,0.0011479285714285834
2656,0.001205678571428643
2657,0.0012155357142857172
2658,0.0012027857142857812
2659,0.0011975357142857896
2660,0.0012252857142857668
2661,0.0011927142857143533
2662,0.0011898214285714914
2663,0.001239535714285722
2664,0.0012566785714285395
2665,0.0012541071428572082
2666,0.0012638571428571054
2667,0.001271999999999959
2668,0.0012661071428572107
2669,0.0012446785714285368
2670,0.0012478928571429293
2671,0.0012556071428570753
2672,0.0012492857142857717
2673,0.001270392857142915
2674,0.0012853928571428038
2675,0.0013321071428571481
2676,0.001364571428571385
2677,0.001338321428571427
2678,0.0013334999999999907
2679,0.001341642857142844
2680,0.0013101428571428947
2681,0.0012714642857142267
2682,0.0013572857142856419
2683,0.0014384999999999743
2684,0.0014185714285714721
2685,0.0013797857142857797
2686,0.0013850357142857713
2687,0.001425321428571483
2688,0.0014426785714285017
2689,0.0014399999999999936
2690,0.0014341071428570931
2691,0.0014290714285714553
2692,0.0014624999999999792
2693,0.0015336428571428838
2694,0.0015395357142857842
2695,0.001502142857142782
2696,0.0014965714285714122
2697,0.0015076071428571274
2698,0.0015138214285714063
2699,0.0014984999999999868
2700,0.001501714285714227
2701,0.001509535714285702
2702,0.001509428571428525
2703,0.0014708571428571865
2704,0.001451464285714264
2705,0.0014704285714286312
2706,0.0014697857142857223
2707,0.00143421428571427
2708,0.0014417142857142144
2709,0.0014485714285714022
2710,0.0014015357142856796
2711,0.0013627499999999872
2712,0.001306499999999947
2713,0.0012933214285714557
2714,0.0012939642857142124
2715,0.0012740357142857104
2716,0.0012560357142857826
2717,0.0012219642857143498
2718,0.0011981785714285462
2719,0.0011982857142857231
2720,0.001179857142857088
2721,0.0011508214285714453
2722,0.00113978571428573
2723,0.0011256428571427993
2724,0.001129285714285747
2725,0.0011317500000000535
2726,0.0011030357142857892
2727,0.0011167500000000125
2728,0.0011300357142856805
2729,0.0011077500000000486
2730,0.0010781785714285214
2731,0.0010809642857143587
2732,0.001103571428571369
2733,0.0011098928571428245
2734,0.0011066785714285844
2735,0.0010925357142856538
2736,0.0011183571428572086
2737,0.0011060357142856755
2738,0.0010969285714285348
2739,0.0010766785714285021
2740,0.0010817142857142922
2741,0.0011089285714285374
2742,0.0011297142857143022
2743,0.0011473928571428514
2744,0.0011407500000000174
2745,0.001117607142857123
2746,0.0010894285714285904
2747,0.0010872857142856622
2748,0.0011061428571428524
2749,0.001099607142857195
2750,0.0011092500000000679
2751,0.0011008928571428608
2752,0.0011005714285714824
2753,0.0011334642857142743
2754,0.0011534999999999534
2755,0.0011511428571428237
2756,0.0011094642857142694
2757,0.001106892857142786
2758,0.001099607142857195
2759,0.001085250000000063
2760,0.001104107142857101
2761,0.0011373214285714235
2762,0.0011542500000000391
2763,0.0011488928571428707
2764,0.0010872857142856622
2765,0.0010808571428571818
2766,0.0011453571428571
2767,0.0011943214285713973
2768,0.001163250000000003
2769,0.0011408571428571943
2770,0.0011268214285714403
2771,0.0011153571428571699
2772,0.0011262857142857084
2773,0.0011289642857142163
2774,0.0011236071428572002
2775,0.0011232857142856696
2776,0.0011240357142857553
2777,0.0011562857142856384
2778,0.0011591785714285
2779,0.0011372142857142466
2780,0.0011583214285713897
2781,0.0011461071428571859
2782,0.0011201785714286064
2783,0.0011288571428571918
2784,0.0011509285714286221
2785,0.001184357142857146
2786,0.0012002142857142977
2787,0.0012042857142856482
2788,0.0011851071428570796
2789,0.001181142857142906
2790,0.0011711785714285025
2791,0.0011669999999999751
2792,0.001157142857142901
2793,0.0011642142857142903
2794,0.0012411428571429185
2795,0.00125517857142852
2796,0.0012196071428570677
2797,0.001207821428571419
2798,0.0012108214285714578
2799,0.0011916428571428891
2800,0.0011701071428571908
2801,0.0011424642857142382
2802,0.0011206071428571615
2803,0.0011527500000000199
2804,0.0011631428571428262
2805,0.001138607142857089
2806,0.0011140714285715044
2807,0.0010933928571429164
2808,0.0011153571428571699
2809,0.0011392499999999981
2810,0.001150500000000067
2811,0.0011748214285714502
2812,0.0011607857142856965
2813,0.0011217857142856503
2814,0.001101321428571416
2815,0.0010903928571428776
2816,0.0011229642857142912
2817,0.001157678571428633
2818,0.0011548928571427958
2819,0.0011630357142856493
2820,0.001204071428571447
2821,0.0013023214285714196
2822,0.001408607142857069
2823,0.001536321428571392
2824,0.0016765714285714496
2825,0.0018354642857143437
2826,0.0019136785714286373
2827,0.0019419642857143467
2828,0.0018478928571429012
2829,0.0015894642857142165
2830,0.0012394285714285454
2831,0.0009692142857142118
2832,0.0009041785714285615
2833,0.0008988214285713931
2834,0.0008602500000000544
2835,0.0008502857142856511
2836,0.0008791071428570924
2837,0.0009196071428571579
2838,0.000990321428571355
2839,0.0010324285714286166
2840,0.001057285714285732
2841,0.0011112857142856671
2842,0.001135821428571404
2843,0.0011417142857143047
2844,0.0011869285714286295
2845,0.0011995714285713889
2846,0.0011930357142857315
2847,0.0011973214285714358
2848,0.0011878928571429168
2849,0.0012051428571429109
2850,0.0012389999999999901
2851,0.0012468214285714652
2852,0.001249071428571418
2853,0.0012506785714286144
2854,0.001240714285714211
2855,0.0012402857142856558
2856,0.0012738214285713566
2857,0.0012957857142857623
2858,0.001271892857142782
2859,0.0012680357142857853
2860,0.0013029642857143285
2861,0.0012968571428570743
2862,0.001267500000000053
2863,0.0012879642857142872
2864,0.001318178571428571
2865,0.0013415357142856671
2866,0.0013380000000000488
2867,0.001351071428571363
2868,0.0013531071428571145
2869,0.0013388571428571592
2870,0.0013740000000000562
2871,0.0013839642857143071
2872,0.0014019642857142347
2873,0.001410321428571442
2874,0.001420178571428516
2875,0.001435928571428643
2876,0.0014418214285713913
2877,0.0014445000000000516
2878,0.0014757857142856474
2879,0.001489392857142846
2880,0.0014887499999999372
2881,0.0015103928571428124
2882,0.0015248571428571214
2883,0.0015024642857143127
2884,0.0014943214285714594
2885,0.0015136071428572047
2886,0.0015321428571428645
2887,0.0015281785714285384
2888,0.0015304285714286437
2889,0.0015402857142857178
2890,0.001512321428571387
2891,0.0015125357142857408
2892,0.0015184285714286412
2893,0.0015252857142856768
2894,0.001500000000000006
2895,0.0014528571428571067
2896,0.0014032500000000527
2897,0.0013918928571428069
2898,0.0013852499999999729
2899,0.0014119285714286381
2900,0.0013713214285713958
2901,0.0013252499999999604
2902,0.0012780000000000363
2903,0.0012421071428572058
2904,0.0012352500000000178
2905,0.0012153214285713634
2906,0.0012247500000000348
2907,0.001227857142857098
2908,0.0011960357142857703
2909,0.0011556428571428818
2910,0.0011391428571428212
2911,0.0011257499999999762
2912,0.0011405357142856636
2913,0.0011494285714286029
2914,0.00113978571428573
2915,0.001091892857142897
2916,0.0010803214285714498
2917,0.0011221071428571807
2918,0.0011390357142856444
2919,0.0011202857142857832
2920,0.0011191071428571422
2921,0.001091357142857165
2922,0.001089642857142792
2923,0.001090714285714256
2924,0.001076785714285679
2925,0.0011082857142857806
2926,0.0010820357142856706
2927,0.0010414285714285805
2928,0.001080642857142828
2929,0.0010985357142857311
2930,0.0010957500000000461
2931,0.0011163214285714572
2932,0.0011222142857143576
2933,0.0010923214285714522
2934,0.0010621071428571684
2935,0.0010844999999999772
2936,0.0011140714285715044
2937,0.001115249999999993
2938,0.0010995000000000184
2939,0.0010878214285713942
2940,0.0011083928571428052
2941,0.0011143928571428826
2942,0.0010959642857142477
2943,0.0010832142857143115
2944,0.001074107142857171
2945,0.001115249999999993
2946,0.0011574642857142793
2947,0.0011373214285714235
2948,0.001124678571428512
2949,0.001134857142857117
2950,0.0011278928571429045
2951,0.0011093571428570925
2952,0.0011124642857143082
2953,0.0011037857142857227
2954,0.0010756071428571902
2955,0.0010821428571428475
2956,0.0011076428571428717
2957,0.0011162142857142803
2958,0.0011539285714285085
2959,0.0011513571428571775
2960,0.0011532857142857518
2961,0.0011366785714285144
2962,0.001087928571428571
2963,0.0010937142857142946
2964,0.001096821428571358
2965,0.0010909285714286096
2966,0.0010890000000000353
2967,0.0010959642857142477
2968,0.0011349642857142936
2969,0.0011476071428572052
2970,0.001123071428571468
2971,0.0011050714285713882
2972,0.0010992857142856647
2973,0.0010861071428571734
2974,0.0011169642857142138
2975,0.0011351785714286474
2976,0.0011412857142857494
2977,0.0011204999999999846
2978,0.0010853571428570876
2979,0.0010878214285713942
2980,0.0011293928571429238
2981,0.0011513571428571775
2982,0.0011546785714285945
2983,0.0011541428571428623
2984,0.0011584285714285665
2985,0.0011602499999999643
2986,0.001144821428571368
2987,0.0011516785714285557
2988,0.0011748214285714502
2989,0.0011856428571428118
2990,0.0011757857142857375
2991,0.0011754642857143593
2992,0.0011629285714286246
2993,0.0011533928571429287
2994,0.001191750000000066
2995,0.001210607142857104
2996,0.0011764285714286466
2997,0.0011233928571428465
2998,0.0011064642857142306
2999,0.0011189999999999653
3000,0.0011139642857143275
3001,0.0011104285714285567
3002,0.0011159999999999265
3003,0.0010989642857142862
3004,0.0010983214285713774
3005,0.001097892857142822
3006,0.0010890000000000353
3007,0.0010981071428571758
3008,0.0011172857142857445
3009,0.0011105357142857336
3010,0.0011093571428570925
3011,0.0011001428571429273
3012,0.0010927500000000073
3013,0.0011026071428570817
3014,0.001110749999999935
3015,0.001121357142857095
3016,0.0011786785714285994
3017,0.0012439285714286033
3018,0.0013525714285713825
3019,0.0015338571428570853
3020,0.001698535714285703
3021,0.0018399642857142495
3022,0.0018792857142856739
3023,0.001929535714285789
3024,0.001962214285714227
3025,0.0016808571428571539
3026,0.0013027499999999747
3027,0.0010056428571429267
3028,0.0009284999999999449
3029,0.0009173571428572051
3030,0.0008398928571428448
3031,0.0008078571428571633
3032,0.000846964285714234
3033,0.0009266785714285472
3034,0.0010134642857142495
3035,0.0010591071428571297
3036,0.0010900714285714994
3037,0.0010898571428571457
3038,0.0010914642857143418
3039,0.0011337857142856528
3040,0.0011447142857143433
3041,0.0011222142857143576
3042,0.0011372142857142466
3043,0.001193892857142842
3044,0.001226785714285786
3045,0.0011960357142857703
3046,0.0011717142857142347
3047,0.0011835000000000357
3048,0.0011894999999999608
3049,0.0011893928571427839
3050,0.0011873571428571848
3051,0.0012062142857142228
3052,0.001232464285714333
3053,0.0012248571428572117
3054,0.0012383571428570812
3055,0.0012642857142856608
3056,0.0012532499999999456
3057,0.0012206785714285319
3058,0.0012582857142857356
3059,0.0012806785714285444
3060,0.0012660000000000338
3061,0.001279821428571434
3062,0.0013089642857142536
3063,0.0012818571428571855
3064,0.001303285714285707
3065,0.0013264285714286014
3066,0.001314964285714331
3067,0.0012877499999999337
3068,0.0013193571428572121
3069,0.0013765714285713874
3070,0.0013892142857142987
3071,0.0013904999999999645
3072,0.0014066785714286466
3073,0.0014186785714284968
3074,0.0014249999999999526
3075,0.00143978571428564
3076,0.001456071428571499
3077,0.0014729999999999624
3078,0.0014695714285713685
3079,0.0014653928571428411
3080,0.0014944285714286363
3081,0.0015109285714285444
3082,0.0014636785714286203
3083,0.0014572499999999876
3084,0.001500642857142915
3085,0.0015438214285714885
3086,0.0015175714285713786
3087,0.0014657142857142196
3088,0.0014568214285714325
3089,0.001450928571428532
3090,0.001454892857142858
3091,0.0014373214285714857
3092,0.0014182499999999417
3093,0.001385678571428528
3094,0.0013254642857143141
3095,0.0013218214285713665
3096,0.0013269642857143334
3097,0.0012854999999999807
3098,0.0012548571428571418
3099,0.0012259285714285235
3100,0.0012461785714285563
3101,0.0012422142857142302
3102,0.0012210000000000625
3103,0.0011821071428571933
3104,0.0011392499999999981
3105,0.0011275714285713739
3106,0.0011100000000000014
3107,0.0011078571428570732
3108,0.0010905000000000545
3109,0.0010574999999999335
3110,0.0010737857142856402
3111,0.0011050714285713882
3112,0.0010822500000000244
3113,0.0010426071428570691
3114,0.001053321428571406
3115,0.0010602857142857707
3116,0.0010692857142857346
3117,0.0010552499999999807
3118,0.001008107142857081
3119,0.0010177499999999538
3120,0.0010691785714285577
3121,0.0010687500000000024
3122,0.0010647857142856766
3123,0.0010582500000000192
3124,0.0010381071428571635
3125,0.0010491428571428787
3126,0.001069499999999936
3127,0.0010716428571428643
3128,0.001055571428571359
3129,0.0010381071428571635
3130,0.0010357500000000336
3131,0.0010368214285714978
3132,0.0010320000000000615
3133,0.0010783928571428752
3134,0.0010954285714285155
3135,0.001072821428571353
3136,0.0010322142857142628
3137,0.0010213928571429015
3138,0.0010338214285714592
3139,0.0010616785714286131
3140,0.0010744285714285493
3141,0.001079035714285784
3142,0.0010688571428571793
3143,0.0010532142857142292
3144,0.0010504285714285442
3145,0.0010827857142857564
3146,0.0010742142857143478
3147,0.0010558928571428895
3148,0.0010787142857142536
3149,0.0010730357142857067
3150,0.0010487142857143234
3151,0.001042714285714246
3152,0.001079571428571364
3153,0.0011032499999999905
3154,0.0010610357142857043
3155,0.0010426071428570691
3156,0.0010636071428571877
3157,0.0010616785714286131
3158,0.0010525714285714726
3159,0.0010371428571428762
3160,0.0010325357142856413
3161,0.0010475357142856825
3162,0.0010642499999999444
3163,0.0010497857142857875
3164,0.0010450714285713757
3165,0.0010565357142856462
3166,0.0010504285714285442
3167,0.0010631785714286326
3168,0.0010637142857142124
3169,0.001037785714285785
3170,0.0010177499999999538
3171,0.0010692857142857346
3172,0.001080642857142828
3173,0.00109735714285709
3174,0.0011123571428571313
3175,0.001103999999999924
3176,0.0011014285714285928
3177,0.0010519285714285637
3178,0.0010358571428572105
3179,0.0010509642857142764
3180,0.0011104285714285567
3181,0.0011614285714286053
3182,0.0011488928571428707
3183,0.0011278928571429045
3184,0.0011181428571428549
3185,0.0011061428571428524
3186,0.0011021785714285263
3187,0.0011133214285714186
3188,0.0010877142857142173
3189,0.0010536428571427845
3190,0.0010356428571428567
3191,0.0010337142857142823
3192,0.0010383214285713648
3193,0.001048392857142793
3194,0.0010381071428571635
3195,0.0010203214285714373
3196,0.0010097142857142772
3197,0.0010106785714285645
3198,0.0010644642857142981
3199,0.0010717500000000412
3200,0.0010346785714285696
3201,0.0010496785714286107
3202,0.0010445357142856437
3203,0.0010307142857142436
3204,0.0010309285714285973
3205,0.001037250000000053
3206,0.0010497857142857875
3207,0.0011371071428570698
3208,0.0012320357142857777
3209,0.0013362857142856755
3210,0.0014880000000000036
3211,0.0016268571428572187
3212,0.0017467500000000668
3213,0.0018324642857143049
3214,0.0018748928571427927
3215,0.0018398571428570726
3216,0.0015970714285714902
3217,0.001181142857142906
3218,0.0008754642857142971
3219,0.0007912499999999259
3220,0.0008119285714285139
3221,0.0007658571428570785
3222,0.0007374642857143446
3223,0.0007768928571427938
3224,0.0008500714285714496
3225,0.0009580714285714719
3226,0.001015928571428556
3227,0.0010329642857143488
3228,0.0010625357142857235
3229,0.0010787142857142536
3230,0.0010655357142857623
3231,0.001084607142857154
3232,0.0010758214285713917
3233,0.0010759285714285686
3234,0.0011029285714286123
3235,0.0011268214285714403
3236,0.0011267142857142635
3237,0.0010977857142856452
3238,0.0011135357142857722
3239,0.0011440714285714344
3240,0.0011791071428571545
3241,0.001177821428571489
3242,0.0011648571428571992
3243,0.0012013928571427866
3244,0.0012293571428571173
3245,0.0012182142857142253
3246,0.0011881071428571184
3247,0.0012037500000000685
3248,0.0012206785714285319
3249,0.001227321428571366
3250,0.0012401785714286312
3251,0.0012416785714284982
3252,0.0012417857142856751
3253,0.001268571428571365
3254,0.001250250000000059
3255,0.0012471428571428436
3256,0.0012849642857142487
3257,0.0012974999999999831
3258,0.0013249285714285821
3259,0.001306607142857124
3260,0.0012799285714286109
3261,0.0013313571428572146
3262,0.001379035714285694
3263,0.0013857857142857049
3264,0.0013926428571428926
3265,0.0013767857142857412
3266,0.0013955357142857545
3267,0.0014186785714284968
3268,0.001413535714285682
3269,0.0014350714285713804
3270,0.0014529642857142833
3271,0.0014603571428572033
3272,0.0014605714285714048
3273,0.0014701071428571007
3274,0.001470000000000076
3275,0.001439892857142817
3276,0.0014177142857143617
3277,0.001445464285714339
3278,0.0014525357142857282
3279,0.001437107142857132
3280,0.0014173928571428313
3281,0.0014120357142856628
3282,0.0013877142857142795
3283,0.0013486071428572086
3284,0.0013327500000000572
3285,0.001320428571428524
3286,0.0013007142857142235
3287,0.0012871071428571768
3288,0.001248964285714241
3289,0.001214464285714253
3290,0.0011967857142857038
3291,0.0011783571428570687
3292,0.0011746071428570966
3293,0.0011551071428571496
3294,0.0011011071428572146
3295,0.0010615714285714362
3296,0.0010151785714286226
3297,0.0010273928571428266
3298,0.0010384285714285417
3299,0.0010586785714285746
3300,0.0010772142857142341
3301,0.0010508571428570995
3302,0.0010241785714285865
3303,0.001042178571428514
3304,0.001043357142857155
3305,0.0010055357142857498
3306,0.0009830357142857642
3307,0.0009906428571428857
3308,0.001006607142857214
3309,0.001023857142857208
3310,0.0010165714285714652
3311,0.0010146428571428906
3312,0.00101935714285715
3313,0.0010205357142856388
3314,0.0010144285714285368
3315,0.0010062857142856833
3316,0.0009935357142857473
3317,0.00099492857142859
3318,0.0010243928571427878
3319,0.0010219285714286334
3320,0.0010180714285714845
3321,0.0010077857142857028
3322,0.0010069285714285924
3323,0.0009979285714286285
3324,0.0009906428571428857
3325,0.001006500000000037
3326,0.001021607142857103
3327,0.0010090714285713683
3328,0.001004249999999932
3329,0.0010146428571428906
3330,0.0010329642857143488
3331,0.0010141071428571584
3332,0.0010034999999999985
3333,0.0010313571428571524
3334,0.0010352142857143016
3335,0.0010431428571428013
3336,0.0010551428571428038
3337,0.0010457142857142848
3338,0.00102492857142852
3339,0.0010302857142856885
3340,0.0010171071428571972
3341,0.0010349999999999479
3342,0.001074535714285726
3343,0.00106178571428579
3344,0.0010069285714285924
3345,0.0010164642857142883
3346,0.0010763571428571237
3347,0.001067892857142892
3348,0.001006607142857214
3349,0.0009705000000000297
3350,0.0009946071428572115
3351,0.0010452857142857295
3352,0.0010270714285714481
3353,0.0010504285714285442
3354,0.0011069999999999628
3355,0.0010753928571428364
3356,0.0010297499999999563
3357,0.001036071428571412
3358,0.0010296428571429316
3359,0.0010217142857142799
3360,0.001029428571428578
3361,0.0010403571428571163
3362,0.001087392857142839
3363,0.0011051785714285651
3364,0.0010899642857143226
3365,0.0010954285714285155
3366,0.0010810714285713833
3367,0.0010902857142857008
3368,0.0011120357142857529
3369,0.001129285714285747
3370,0.0010943571428572037
3371,0.0010610357142857043
3372,0.0010722857142857732
3373,0.0011034642857143443
3374,0.0011187857142857637
3375,0.0011170714285713907
3376,0.001097892857142822
3377,0.0010672499999999831
3378,0.001053321428571406
3379,0.0010379999999999866
3380,0.0010075714285715013
3381,0.001013142857142871
3382,0.0010258928571428073
3383,0.0010486071428571465
3384,0.0010488214285715002
3385,0.001009392857142899
3386,0.001016035714285733
3387,0.0010615714285714362
3388,0.0010364999999999671
3389,0.0010151785714286226
3390,0.0010417499999999587
3391,0.0009957857142857004
3392,0.0009899999999999766
3393,0.0010312499999999755
3394,0.0010792499999999856
3395,0.0011189999999999653
3396,0.0011949642857143061
3397,0.001349571428571496
3398,0.0014968928571427907
3399,0.0016698214285714385
3400,0.0017578928571428064
3401,0.0017855357142857592
3402,0.001857428571428597
3403,0.0017821071428571653
3404,0.0014508214285713552
3405,0.0010731428571428836
3406,0.0008582142857143031
3407,0.0007882500000000396
3408,0.0007648928571427912
3409,0.0007278214285714718
3410,0.000733821428571397
3411,0.0008067857142856992
3412,0.0008751428571429187
3413,0.0009453214285713837
3414,0.0009936428571429242
3415,0.0009967499999999874
3416,0.00099492857142859
3417,0.0010212857142857246
3418,0.0010779642857143199
3419,0.0010826785714285795
3420,0.0010828928571429332
3421,0.0011088214285713605
3422,0.001126500000000062
3423,0.001090714285714256
3424,0.0010416428571427818
3425,0.0010410000000000252
3426,0.0010955357142856924
3427,0.0011396785714285532
3428,0.0011216785714286256
3429,0.0011220000000000039
3430,0.0011457857142856552
3431,0.001096285714285778
3432,0.0010586785714285746
3433,0.0010972500000000654
3434,0.0011237142857142247
3435,0.0011306785714285893
3436,0.001139892857142907
3437,0.0011654999999999559
3438,0.0012029999999999827
3439,0.0011949642857143061
3440,0.0011631428571428262
3441,0.0011814642857142844
3442,0.0012101785714285487
3443,0.0011992500000000104
3444,0.0011998928571429193
3445,0.0012351428571428411
3446,0.0012573214285714483
3447,0.0012607500000000422
3448,0.0012834642857142294
3449,0.0012886071428571963
3450,0.0012754285714285528
3451,0.0013074642857142343
3452,0.0013451785714286148
3453,0.001383535714285752
3454,0.0013708928571428405
3455,0.001344964285714261
3456,0.0013627499999999872
3457,0.0013735714285715009
3458,0.0013927500000000695
3459,0.001414178571428591
3460,0.001403571428571431
3461,0.0013994999999999281
3462,0.0014033571428570773
3463,0.001379035714285694
3464,0.0013769999999999425
3465,0.0014109642857143508
3466,0.0013924285714285388
3467,0.001349035714285764
3468,0.0013655357142856722
3469,0.0013628571428571641
3470,0.0013339285714285458
3471,0.001311642857142914
3472,0.0013090714285714305
3473,0.0012743571428570886
3474,0.0012501428571428822
3475,0.001248428571428509
3476,0.0012114642857142144
3477,0.0011563928571428153
3478,0.0011128928571428633
3479,0.0011200714285714295
3480,0.0011452500000000755
3481,0.0011165357142856587
3482,0.0010647857142856766
3483,0.000995892857142877
3484,0.0009671785714286126
3485,0.0009715714285714938
3486,0.0009459642857142926
3487,0.0009472499999999582
3488,0.000987107142857115
3489,0.0009936428571429242
3490,0.0009600000000000465
3491,0.0009478928571428672
3492,0.0009457499999999389
3493,0.0009649285714285075
3494,0.000951428571428638
3495,0.0009502499999999969
3496,0.0009543214285714997
3497,0.0009325714285714476
3498,0.0009127499999999701
3499,0.0009030000000000728
3500,0.0009604285714286017
3501,0.0010002857142857582
3502,0.0009865714285713827
3503,0.000970821428571408
3504,0.0009563571428570989
3505,0.000974785714285734
3506,0.0009551785714286102
3507,0.0009261428571428151
3508,0.0009433928571428091
3509,0.000988714285714311
3510,0.0009828214285714106
3511,0.0009934285714285705
3512,0.000980892857142836
3513,0.0009792857142856398
3514,0.0009642857142857508
3515,0.0009681428571428999
3516,0.000958607142857204
3517,0.0009426428571428756
3518,0.000959678571428516
3519,0.0010013571428570702
3520,0.0010030714285714432
3521,0.0009868928571429134
3522,0.0009895714285714215
3523,0.0009999642857142278
3524,0.0010036071428571754
3525,0.0009703928571428528
3526,0.0009554999999999885
3527,0.0009533571428572124
3528,0.0009526071428571267
3529,0.0010050000000000178
3530,0.0010007142857143135
3531,0.0009713571428571401
3532,0.0009777857142857726
3533,0.0009711428571427864
3534,0.0009706071428572066
3535,0.0009772500000000406
3536,0.0009850714285713634
3537,0.0009866785714285596
3538,0.0010089642857143437
3539,0.0009724285714286042
3540,0.0009429642857142539
3541,0.0009668571428570821
3542,0.000978535714285706
3543,0.0009972857142857196
3544,0.001000928571428515
3545,0.0010003928571427829
3546,0.0010071428571427937
3547,0.0009843214285714299
3548,0.0009874285714286453
3549,0.001018714285714241
3550,0.0010401428571429148
3551,0.0010504285714285442
3552,0.0010264285714285393
3553,0.001012178571428584
3554,0.0010358571428572105
3555,0.0010416428571427818
3556,0.0010419642857143125
3557,0.0010323214285714397
3558,0.0010256785714286057
3559,0.001012607142857139
3560,0.001023857142857208
3561,0.001043892857142887
3562,0.0010279285714285586
3563,0.0010010357142856917
3564,0.001006071428571482
3565,0.0009828214285714106
3566,0.0009612857142857122
3567,0.0009714642857143169
3568,0.0009541071428571461
3569,0.000960214285714248
3570,0.0009856071428570954
3571,0.000999321428571471
3572,0.0010116428571428518
3573,0.0010023214285713575
3574,0.0009914999999999959
3575,0.0009849642857143388
3576,0.0009815357142857449
3577,0.0009946071428572115
3578,0.0009868928571429134
3579,0.0009491785714285328
3580,0.0009250714285715032
3581,0.000998785714285739
3582,0.001062749999999925
3583,0.0011278928571429045
3584,0.0012447857142857137
3585,0.0013973571428571522
3586,0.0015778928571429215
3587,0.0017402142857142573
3588,0.0018058928571428165
3589,0.001843607142857197
3590,0.001747714285714354
3591,0.0014405357142857258
3592,0.0010743214285713724
3593,0.0008754642857142971
3594,0.0008022857142856412
3595,0.0007295357142856927
3596,0.0006526071428572169
3597,0.0006322500000000073
3598,0.000752357142857209
3599,0.0008619642857142753
3600,0.0008966785714286171
3601,0.0009453214285713837
3602,0.000998250000000007
3603,0.0010262142857143377
3604,0.0010234285714285005
3605,0.0010488214285715002
3606,0.0010464642857142183
3607,0.0010445357142856437
3608,0.0010565357142856462
3609,0.001083428571428513
3610,0.0010755000000000133
3611,0.0010441071428570886
3612,0.0010518214285713868
3613,0.00108353571428569
3614,0.0010906071428570792
3615,0.0011083928571428052
3616,0.0011362499999999593
3617,0.0011083928571428052
3618,0.0010803214285714498
3619,0.0011018571428571481
3620,0.0011407500000000174
3621,0.0011564999999999922
3622,0.0011583214285713897
3623,0.0011506071428570915
3624,0.001174928571428627
3625,0.0011883214285714721
3626,0.0012014999999999632
3627,0.0012009642857142312
3628,0.001207821428571419
3629,0.0012013928571427866
3630,0.0011738571428571629
3631,0.001179857142857088
3632,0.0012195000000000432
3633,0.0012579642857143572
3634,0.0012716785714285805
3635,0.0012900000000000387
3636,0.0013153928571428863
3637,0.001300392857142845
3638,0.0012949285714284997
3639,0.001328464285714353
3640,0.0013708928571428405
3641,0.0013779642857142298
3642,0.0013894285714285003
3643,0.0013847142857142407
3644,0.0013787142857143156
3645,0.001401321428571478
3646,0.0014027142857143207
3647,0.0013992857142857268
3648,0.0014287499999999247
3649,0.0014238214285714637
3650,0.0014081785714285136
3651,0.00139682142857142
3652,0.0013763571428571859
3653,0.001385678571428528
3654,0.0014192142857142288
3655,0.0013740000000000562
3656,0.001327071428571358
3657,0.0013079999999999663
3658,0.0012921428571428149
3659,0.001286464285714268
3660,0.0012655714285714785
3661,0.0012354642857142193
3662,0.0012247500000000348
3663,0.0011926071428571764
3664,0.001193892857142842
3665,0.0011706428571429228
3666,0.0011308928571427909
3667,0.00113657142857149
3668,0.0011371071428570698
3669,0.0011010000000000377
3670,0.0010778571428571432
3671,0.0010883571428571262
3672,0.001039392857142829
3673,0.0010181785714285091
3674,0.001049464285714257
3675,0.001041107142857202
3676,0.001049999999999989
3677,0.0010548214285714254
3678,0.0010413214285714036
3679,0.001013250000000048
3680,0.0009946071428572115
3681,0.0009710357142857617
3682,0.000973071428571361
3683,0.0009895714285714215
3684,0.0009931071428571922
3685,0.000980249999999927
3686,0.0009749999999999354
3687,0.0009969642857143412
3688,0.0010246071428571416
3689,0.0009978214285714516
3690,0.0009884999999999573
3691,0.0010073571428571475
3692,0.001004249999999932
3693,0.0009936428571429242
3694,0.0009721071428570737
3695,0.0009819642857143002
3696,0.0009883928571429326
3697,0.0009933214285713936
3698,0.0010062857142856833
3699,0.0010281428571429123
3700,0.0010379999999999866
3701,0.0010235357142856774
3702,0.0009937499999999489
3703,0.0009725357142857811
3704,0.0009520714285713946
3705,0.0009924642857142832
3706,0.00104057142857147
3707,0.0010414285714285805
3708,0.0010272857142856497
3709,0.0010370357142856993
3710,0.0010265357142857162
3711,0.0010194642857143269
3712,0.0010313571428571524
3713,0.0010010357142856917
3714,0.0009867857142857365
3715,0.001042285714285691
3716,0.0010495714285714338
3717,0.0009970714285713659
3718,0.0009763928571429302
3719,0.0009877500000000238
3720,0.0009916071428571727
3721,0.001002750000000065
3722,0.0010229999999999454
3723,0.001029535714285755
3724,0.0010185000000000396
3725,0.001007678571428526
3726,0.0010214999999999261
3727,0.0010362857142857658
3728,0.0010336071428571055
3729,0.0010108928571429183
3730,0.0010039285714285536
3731,0.001028785714285669
3732,0.0010492500000000556
3733,0.0010194642857143269
3734,0.0010075714285715013
3735,0.0010487142857143234
3736,0.001039500000000006
3737,0.001036071428571412
3738,0.0010345714285713928
3739,0.0010348928571429232
3740,0.001032107142857086
3741,0.0010554642857143345
3742,0.001050107142857166
3743,0.001053428571428583
3744,0.0010676785714285382
3745,0.0010924285714286291
3746,0.0011095714285714463
3747,0.0011247857142856889
3748,0.0011653928571429312
3749,0.0011130000000000402
3750,0.0010597500000000387
3751,0.0010776428571427894
3752,0.001084714285714331
3753,0.0010596428571428619
3754,0.0010275000000000035
3755,0.00102996428571431
3756,0.0010415357142857574
3757,0.001048928571428525
3758,0.0010318928571428846
3759,0.0010161428571429099
3760,0.0010104642857142107
3761,0.0010085357142857886
3762,0.0010277142857143572
3763,0.001033928571428636
3764,0.0010251428571428738
3765,0.001015500000000001
3766,0.001006500000000037
3767,0.0010246071428571416
3768,0.0010157142857143548
3769,0.0010104642857142107
3770,0.0010180714285714845
3771,0.001048392857142793
3772,0.0010942500000000268
3773,0.0011821071428571933
3774,0.0013567500000000621
3775,0.001520142857142862
3776,0.0016195714285714758
3777,0.0017183571428571805
3778,0.0018009642857143556
3779,0.0018386785714285838
3780,0.001724785714285661
3781,0.001414071428571414
3782,0.001059535714285685
3783,0.0008380714285714471
3784,0.0007695000000000261
3785,0.0007502142857142806
3786,0.0007153928571429142
3787,0.000713785714285718
3788,0.0007958571428571609
3789,0.000857678571428571
3790,0.0008832857142857722
3791,0.0009495000000000634
3792,0.0009966428571428106
3793,0.0010284642857142908
3794,0.0010592142857143065
3795,0.0010693928571429113
3796,0.00106735714285716
3797,0.001077321428571411
3798,0.0010686428571428255
3799,0.0010682142857142704
3800,0.001108071428571427
3801,0.001131428571428523
3802,0.0011210357142857168
3803,0.0011126785714285095
3804,0.0011251071428570673
3805,0.001129285714285747
3806,0.0011461071428571859
3807,0.00116100000000005
3808,0.001139892857142907
3809,0.0011317500000000535
3810,0.0011495357142857798
3811,0.0011578928571428346
3812,0.0011644285714286439
3813,0.0011841428571427923
3814,0.001201285714285762
3815,0.001179428571428533
3816,0.0011718214285714116
3817,0.0011784642857142456
3818,0.0012036428571428916
3819,0.0012253928571427915
3820,0.0012442499999999817
3821,0.00127639285714284
3822,0.0013030714285713531
3823,0.001265249999999948
3824,0.0012467142857142883
3825,0.001289678571428508
3826,0.0013164642857143502
3827,0.0013085357142856985
3828,0.0012759642857142848
3829,0.0012875357142857321
3830,0.0013516071428570952
3831,0.0013804285714285364
3832,0.001378499999999962
3833,0.0013941428571429121
3834,0.0013965000000000418
3835,0.001376892857142918
3836,0.0013756071428571001
3837,0.0013689642857142661
3838,0.001396928571428597
3839,0.0013971428571427985
3840,0.0013839642857143071
3841,0.001389750000000031
3842,0.0013568571428570868
3843,0.0013642500000000065
3844,0.00139917857142855
3845,0.0013953214285714007
3846,0.0013640357142856527
3847,0.001328464285714353
3848,0.0013068214285714777
3849,0.0013090714285714305
3850,0.0012939642857142124
3851,0.0012553928571428737
3852,0.0012372857142857693
3853,0.0012175714285714687
3854,0.0011890714285714057
3855,0.001180499999999997
3856,0.0011683928571428177
3857,0.0011597142857142323
3858,0.0011471785714284976
3859,0.0011141785714285288
3860,0.0010701428571428448
3861,0.0010446428571428206
3862,0.0010326428571428182
3863,0.0010095000000000759
3864,0.001004892857142841
3865,0.0010161428571429099
3866,0.0010195714285715037
3867,0.0010144285714285368
3868,0.0009848571428571619
3869,0.000980249999999927
3870,0.0009850714285713634
3871,0.0009772500000000406
3872,0.0009659999999999717
3873,0.0009805714285714576
3874,0.0009821785714285015
3875,0.0009751071428571123
3876,0.0009803571428571038
3877,0.0009906428571428857
3878,0.0010007142857143135
3879,0.0009968571428571643
3880,0.0009978214285714516
3881,0.0009636428571428419
3882,0.0009561428571428975
3883,0.0009771428571428637
3884,0.000986464285714358
3885,0.0010041428571429074
3886,0.00102492857142852
3887,0.0010156071428571779
3888,0.0010222500000000119
3889,0.0009983571428571838
3890,0.0009473571428571351
3891,0.0009057857142857578
3892,0.0008615357142857201
3893,0.0007965000000000698
3894,0.000739928571428499
3895,0.000733285714285665
3896,0.000692571428571398
3897,0.0006543214285714376
3898,0.0006466071428571394
3899,0.0006740357142857383
3900,0.0006905357142856465
3901,0.0006589285714285203
3902,0.000659142857142874
3903,0.0006464999999999625
3904,0.0006183214285714302
3905,0.0006527142857142414
3906,0.0006768214285714232
3907,0.0006606428571428934
3908,0.0006461785714285842
3909,0.0006476785714286036
3910,0.0006790714285713761
3911,0.0006807857142857492
3912,0.0007006071428570745
3913,0.0006870000000000281
3914,0.0006588214285714956
3915,0.0006638571428571335
3916,0.0006853928571428318
3917,0.0006742499999999398
3918,0.0006746785714286473
3919,0.000661928571428559
3920,0.0006408214285714158
3921,0.0006573214285714764
3922,0.0006682500000000146
3923,0.0006767142857142465
3924,0.0006826071428571469
3925,0.0006710357142856997
3926,0.0006327857142857392
3927,0.0006216428571428472
3928,0.0006116785714285961
3929,0.0005995714285714168
3930,0.0006141428571429028
3931,0.0006282857142856813
3932,0.000635142857142869
3933,0.0006237857142857755
3934,0.0006185357142857839
3935,0.000632357142857184
3936,0.0005838214285714421
3937,0.0005583214285714178
3938,0.0005636785714285862
3939,0.0005667857142856495
3940,0.0005494285714286308
3941,0.000566035714285716
3942,0.0005666785714286248
3943,0.000535928571428609
3944,0.0005233928571428745
3945,0.0005484642857143436
3946,0.0005524285714285172
3947,0.0005876785714285912
3948,0.0005998928571427951
3949,0.0005766428571428759
3950,0.0005593928571428819
3951,0.0005608928571429013
3952,0.0005543571428570918
3953,0.0005387142857142939
3954,0.0005398928571427827
3955,0.0005668928571428264
3956,0.0006136071428571707
3957,0.0006778928571428874
3958,0.0007704642857143134
3959,0.0008766428571427859
3960,0.0009681428571428999
3961,0.0010677857142857151
3962,0.0011598214285714092
3963,0.0012401785714286312
3964,0.0012365357142856835
3965,0.001075178571428635
3966,0.0007938214285714095
3967,0.0004851428571429141
3968,0.0003465000000000527
3969,0.00030321428571430226
3970,0.0002740714285714826
3971,0.0002584285714285325
3972,0.00023185714285719631
3973,0.00026217857142850473
3974,0.0003560357142857486
3975,0.00042910714285707537
3976,0.00047485714285713245
3977,0.0005144999999999353
3978,0.0005618571428571886
3979,0.000611142857142864
3980,0.0006080357142856485
3981,0.000611142857142864
3982,0.000601178571428613
3983,0.0006201428571428279
3984,0.0006723214285713653
3985,0.0006515357142857527
3986,0.0006263571428571067
3987,0.000671357142857078
3988,0.000692571428571398
3989,0.000699857142857141
3990,0.0007134642857143397
3991,0.000709821428571392
3992,0.0006912857142857324
3993,0.0007057500000000415
3994,0.0007660714285714323
3995,0.0007409999999999632
3996,0.0007241785714285243
3997,0.0007317857142856456
3998,0.0007391785714285654
3999,0.0007534285714285208
4000,0.000744428571428557
4001,0.0007711071428570701
4002,0.000816321428571395
4003,0.000785678571428556
4004,0.0007880357142856858
4005,0.0008499642857142728
4006,0.0008502857142856511
4007,0.000761785714285728
4008,0.0007809642857142965
4009,0.0008647499999999602
4010,0.0008832857142857722
4011,0.0008786785714285372
4012,0.0008885357142857637
4013,0.0009131785714285253
4014,0.0009488571428571545
4015,0.0009450000000000054
4016,0.000946821428571403
4017,0.0009659999999999717
4018,0.0009707142857142312
4019,0.0009732857142857146
4020,0.000984214285714253
4021,0.0009626785714285547
4022,0.0009794999999999934
4023,0.0010279285714285586
4024,0.0009998571428572031
4025,0.0009763928571429302
4026,0.0009565714285714527
4027,0.0009287142857142985
4028,0.0009410357142856794
4029,0.0009281785714285666
4030,0.0009357857142856878
4031,0.0009192857142857795
4032,0.0008942142857143104
4033,0.0008953928571427992
4034,0.0008656071428570706
4035,0.0008210357142856545
4036,0.000809678571428561
4037,0.0008093571428571827
4038,0.0007784999999999899
4039,0.0007475357142857726
4040,0.0007588928571428661
4041,0.0007516071428571231
4042,0.0007141071428570963
4043,0.0006751071428572024
4044,0.0006702857142857661
4045,0.0006800357142856634
4046,0.0006589285714285203
4047,0.0006275357142857478
4048,0.0006286071428572118
4049,0.0006401785714285069
4050,0.0006228214285714883
4051,0.0006304285714286096
4052,0.0006238928571428001
4053,0.0006298928571428775
4054,0.0006130714285714386
4055,0.0006043928571428532
4056,0.0006476785714286036
4057,0.0006219642857142255
4058,0.0005833928571428869
4059,0.0005911071428571851
4060,0.000596035714285646
4061,0.0006427499999999903
4062,0.0006411428571427942
4063,0.0005873571428572129
4064,0.0005992500000000384
4065,0.0006068571428571597
4066,0.0006129642857142617
4067,0.0006328928571429161
4068,0.0006023571428571018
4069,0.0006099642857142231
4070,0.000644035714285656
4071,0.0006601071428571613
4072,0.0006654642857143297
4073,0.00065250000000004
4074,0.0006624642857142911
4075,0.0006649285714285977
4076,0.0006694285714285034
4077,0.0006605357142857165
4078,0.0006641785714285119
4079,0.0006596785714286061
4080,0.0006563571428571891
4081,0.0006499285714285565
4082,0.0006534642857143273
4083,0.000679821428571462
4084,0.0006708214285714981
4085,0.0006588214285714956
4086,0.0006611785714286255
4087,0.0006631071428571999
4088,0.0006491785714286229
4089,0.0006543214285714376
4090,0.0006329999999999408
4091,0.0006216428571428472
4092,0.0006604285714285396
4093,0.0006859285714285639
4094,0.000681428571428506
4095,0.000668035714285661
4096,0.000689785714285713
4097,0.0006928928571429285
4098,0.0006829285714285252
4099,0.0006921428571428428
4100,0.0006796071428571082
4101,0.0006808928571429261
4102,0.0006920357142856659
4103,0.0006872142857142295
4104,0.0006938571428572158
4105,0.0006774642857143322
4106,0.0006635357142857551
4107,0.0007045714285714005
4108,0.0007326428571429082
4109,0.0007438928571428249
4110,0.0007443214285713801
4111,0.0007122857142856986
4112,0.0006943928571427957
4113,0.0007162500000000246
4114,0.0006953571428570829
4115,0.0006789642857143516
4116,0.0007061785714285966
4117,0.000752357142857209
4118,0.0007797857142856555
4119,0.0007874999999999537
4120,0.0007836428571428046
4121,0.0007602857142857086
4122,0.0007498928571429023
4123,0.0007088571428571047
4124,0.0006701785714285892
4125,0.0006738214285713846
4126,0.0006696428571428571
4127,0.0006820714285714148
4128,0.0006941785714285942
4129,0.0006993214285714089
4130,0.0006982499999999448
4131,0.0006843214285713677
4132,0.0006799285714286388
4133,0.0006732857142856525
4134,0.0006802500000000171
4135,0.0006859285714285639
4136,0.0006964285714285471
4137,0.0006975000000000113
4138,0.0006951428571428815
4139,0.0006870000000000281
4140,0.0006902142857142682
4141,0.0007368214285714357
4142,0.0008292857142856848
4143,0.0009098571428571083
4144,0.0010676785714285382
4145,0.0012232500000000153
4146,0.001322250000000074
4147,0.0014153571428570798
4148,0.001495607142857125
4149,0.0014714999999999431
4150,0.0012008571428572066
4151,0.0008323928571429003
4152,0.0005442857142856639
4153,0.00045257142857150053
4154,0.00045450000000007507
4155,0.0004201071428571116
4156,0.0004084285714286397
4157,0.00041517857142849837
4158,0.0004574999999999615
4159,0.0005341071428572113
4160,0.0005950714285713587
4161,0.0006601071428571613
4162,0.0006997499999999641
4163,0.000743785714285648
4164,0.0007555714285714491
4165,0.0007453928571428443
4166,0.0007372499999999908
4167,0.00074110714285714
4168,0.0007327499999999329
4169,0.0007377857142857229
4170,0.0007892142857143268
4171,0.0008048571428571246
4172,0.0008215714285713866
4173,0.000843642857142817
4174,0.0008613214285713663
4175,0.0008781428571428051
4176,0.0008494285714285407
4177,0.0008305714285715027
4178,0.000840964285714309
4179,0.0008651785714285154
4180,0.0008495357142857176
4181,0.0008621785714286289
4182,0.0008998928571428572
4183,0.000891642857142827
4184,0.0009049285714286474
4185,0.0009115714285714814
4186,0.0009335357142857349
4187,0.0009388928571429034
4188,0.0009436071428571629
4189,0.0009521785714285715
4190,0.0009532500000000357
4191,0.0009534642857142371
4192,0.0009480000000000441
4193,0.0010028571428570894
4194,0.0010190357142857718
4195,0.0010000714285714047
4196,0.0010088571428571668
4197,0.001040678571428647
4198,0.00104935714285708
4199,0.0010376785714286082
4200,0.0010583571428571961
4201,0.0010891071428572121
4202,0.0011098928571428245
4203,0.0011341071428571834
4204,0.0011146071428570841
4205,0.001087392857142839
4206,0.00108857142857148
4207,0.0011032499999999905
4208,0.0011243571428571338
4209,0.0011473928571428514
4210,0.0011215714285714488
4211,0.0011033571428571674
4212,0.0011093571428570925
4213,0.0011186785714285869
4214,0.001105821428571474
4215,0.0010963928571428028
4216,0.0010838571428570683
4217,0.00105996428571424
4218,0.0010244999999999647
4219,0.0009966428571428106
4220,0.0009947142857142362
4221,0.0009819642857143002
4222,0.0009497142857142649
4223,0.0009110357142857493
4224,0.0008868214285713906
4225,0.0008932500000000231
4226,0.0008547857142857091
4227,0.0008331428571428339
4228,0.0008387142857143561
4229,0.0008222142857142956
4230,0.0008419285714285962
4231,0.0008166428571429257
4232,0.0007797857142856555
4233,0.0007548214285713633
4234,0.0007514999999999462
4235,0.000759000000000043
4236,0.0007438928571428249
4237,0.000710464285714301
4238,0.0006740357142857383
4239,0.0007030714285713812
4240,0.0007393928571429192
4241,0.0007532142857143194
4242,0.000724392857142878
4243,0.0007217142857142176
4244,0.0007453928571428443
4245,0.0007147500000000053
4246,0.0007053214285714863
4247,0.0007440000000000018
4248,0.0007794642857142772
4249,0.0007598571428571534
4250,0.0007475357142857726
4251,0.0007619999999999294
4252,0.0007246071428570795
4253,0.000703178571428558
4254,0.0007125000000000524
4255,0.0007323214285713777
4256,0.0007632857142857472
4257,0.0007756071428571281
4258,0.0007662857142857859
4259,0.0007191428571428864
4260,0.0007255714285713667
4261,0.0007857857142857329
4262,0.0007697142857142276
4263,0.0007414285714285184
4264,0.0007343571428571291
4265,0.0007354285714285932
4266,0.0007270714285713861
4267,0.0007478571428571509
4268,0.0007666071428571643
4269,0.0007442142857143556
4270,0.0007251428571428115
4271,0.0007295357142856927
4272,0.0007253571428571653
4273,0.0007382142857142781
4274,0.0007735714285713767
4275,0.0007703571428571365
4276,0.0007677857142856531
4277,0.0007702499999999597
4278,0.0007496785714285486
4279,0.0007291071428571375
4280,0.0007289999999999607
4281,0.0007573928571428468
4282,0.0007669285714285427
4283,0.0007501071428571038
4284,0.0007669285714285427
4285,0.000752357142857209
4286,0.000736607142857082
4287,0.0007581428571429325
4288,0.0007781785714286116
4289,0.0007966071428570944
4290,0.0007752857142857498
4291,0.000755678571428626
4292,0.0007394999999999438
4293,0.0007900714285714372
4294,0.0007932857142856774
4295,0.000759535714285775
4296,0.0007708928571428686
4297,0.0007906071428571693
4298,0.0008134285714285332
4299,0.0008009999999999756
4300,0.000755035714285717
4301,0.0007609285714286175
4302,0.0007965000000000698
4303,0.0007937142857142326
4304,0.000779035714285722
4305,0.0007647857142857666
4306,0.0007749642857142192
4307,0.0007833214285714263
4308,0.0008060357142857656
4309,0.0007958571428571609
4310,0.0008092500000000058
4311,0.000829178571428508
4312,0.0008258571428570909
4313,0.0008211428571428314
4314,0.0008017500000000613
4315,0.0007711071428570701
4316,0.0007529999999999656
4317,0.0007786071428571668
4318,0.0007629642857142167
4319,0.0007533214285714962
4320,0.0007339285714285738
4321,0.0007382142857142781
4322,0.0007413214285714937
4323,0.0007354285714285932
4324,0.0007387500000000102
4325,0.0007488214285714382
4326,0.0007561071428571812
4327,0.0007533214285714962
4328,0.0007374642857143446
4329,0.0007258928571428974
4330,0.0007256785714285436
4331,0.0007237499999999691
4332,0.0007089642857142816
4333,0.0007179642857142454
4334,0.0007206428571429058
4335,0.0007191428571428864
4336,0.0007802142857142107
4337,0.0008838214285715042
4338,0.0009943928571428578
4339,0.001139892857142907
4340,0.0012828214285714725
4341,0.001409142857142801
4342,0.0015203571428572158
4343,0.0016178571428571028
4344,0.0016102499999999813
4345,0.0013989642857143484
4346,0.001029428571428578
4347,0.0006862499999999422
4348,0.0005260714285713825
4349,0.0005226428571427886
4350,0.0005071071428571676
4351,0.0004466785714286
4352,0.00048546428571429246
4353,0.0005847857142857293
4354,0.0006461785714285842
4355,0.0007018928571428923
4356,0.0007157142857142925
4357,0.000739928571428499
4358,0.000783000000000048
4359,0.0007950000000000504
4360,0.0007881428571428627
4361,0.0007938214285714095
4362,0.0008081785714285416
4363,0.0008151428571429063
4364,0.0008133214285713563
4365,0.0008245714285714253
4366,0.0008371071428571598
4367,0.0008402142857142232
4368,0.0008696785714285734
4369,0.0008710714285714159
4370,0.000863785714285673
4371,0.000872785714285789
4372,0.0008664642857143333
4373,0.0008598214285714992
4374,0.0008867142857142137
4375,0.0009425357142856987
4376,0.0009439285714285412
4377,0.0009482142857142455
4378,0.0009732857142857146
4379,0.0009277500000000114
4380,0.0009008571428571445
4381,0.0009321428571428924
4382,0.0009715714285714938
4383,0.0009838928571428746
4384,0.0009901071428571535
4385,0.000980892857142836
4386,0.0009740357142856481
4387,0.0009739285714286236
4388,0.0009773571428572175
4389,0.0010312499999999755
4390,0.0010854642857142645
4391,0.0011032499999999905
4392,0.0010893214285714135
4393,0.0011022857142857032
4394,0.001118035714285678
4395,0.0011120357142857529
4396,0.0011056071428571202
4397,0.0011033571428571674
4398,0.0010947857142857588
4399,0.001134857142857117
4400,0.0011873571428571848
4401,0.0011854285714286102
4402,0.001178892857142801
4403,0.0011741785714285413
4404,0.001167750000000061
4405,0.0011739642857143398
4406,0.0011708571428571243
4407,0.001149749999999981
4408,0.001119321428571496
4409,0.0011032499999999905
4410,0.0010956428571428692
4411,0.0010954285714285155
4412,0.001076785714285679
4413,0.00104935714285708
4414,0.0010329642857143488
4415,0.001007678571428526
4416,0.0009771428571428637
4417,0.0009609642857143338
4418,0.0009206785714286221
4419,0.0009096428571429069
4420,0.0009446785714286271
4421,0.0009225000000000198
4422,0.0008533928571428667
4423,0.0008170714285714809
4424,0.000810857142857202
4425,0.000806357142857144
4426,0.0008089285714286275
4427,0.0007923214285713901
4428,0.0007886785714285948
4429,0.0007772142857143243
4430,0.000751071428571391
4431,0.0007440000000000018
4432,0.000759000000000043
4433,0.0007470000000000405
4434,0.000720428571428552
4435,0.0007207499999999304
4436,0.0007017857142857156
4437,0.000694285714285771
4438,0.000699214285714232
4439,0.0006885000000000474
4440,0.0006754285714285808
4441,0.0006782142857142657
4442,0.0006982499999999448
4443,0.0006910714285713786
4444,0.0006832500000000559
4445,0.0006908571428571772
4446,0.0006970714285714561
4447,0.0006891428571428041
4448,0.0006837857142857879
4449,0.0006738214285713846
4450,0.0006505714285714654
4451,0.0006760714285714897
4452,0.0006839999999999894
4453,0.0006760714285714897
4454,0.0006823928571427931
4455,0.0006856071428571856
4456,0.0006755357142857576
4457,0.0006681428571428378
4458,0.0007012499999999835
4459,0.0007135714285713642
4460,0.0007095000000000137
4461,0.0007002857142856962
4462,0.0006907500000000003
4463,0.000693750000000039
4464,0.0007114285714285882
4465,0.0006935357142856853
4466,0.0006817500000000365
4467,0.0007044642857142236
4468,0.000711000000000033
4469,0.0006689999999999482
4470,0.0006633214285714015
4471,0.0007142142857142732
4472,0.0007158214285714694
4473,0.0006988928571428537
4474,0.0006928928571429285
4475,0.0007494642857143471
4476,0.000742285714285781
4477,0.000707678571428616
4478,0.0007081071428571712
4479,0.0007021071428570939
4480,0.0007062857142857735
4481,0.0007143214285714501
4482,0.0006920357142856659
4483,0.0006741428571429152
4484,0.000685821428571387
4485,0.0006982499999999448
4486,0.0007241785714285243
4487,0.0007314642857142673
4488,0.0007108928571428562
4489,0.000712607142857077
4490,0.0007236428571427922
4491,0.0007207499999999304
4492,0.000690964285714354
4493,0.0006843214285713677
4494,0.0006704999999999676
4495,0.0006702857142857661
4496,0.0007266428571428309
4497,0.0007212857142856624
4498,0.000748392857142883
4499,0.0007292142857143144
4500,0.0006709285714285228
4501,0.0006997499999999641
4502,0.0007241785714285243
4503,0.0007153928571429142
4504,0.0007314642857142673
4505,0.000728250000000027
4506,0.0007329642857142866
4507,0.0007209642857142841
4508,0.0007072500000000608
4509,0.0007017857142857156
4510,0.0006964285714285471
4511,0.000721071428571461
4512,0.000739928571428499
4513,0.0007384285714286319
4514,0.0007283571428572039
4515,0.0007358571428571484
4516,0.0007368214285714357
4517,0.0007339285714285738
4518,0.0007430357142857145
4519,0.0007553571428570953
4520,0.0007914642857142797
4521,0.0008023928571428181
4522,0.0007874999999999537
