Time,ECG_Lead1
0,0.0012031071428571596
1,0.0013983214285714395
2,0.0017544642857142126
3,0.001994464285714262
4,0.0019359642857142692
5,0.001665214285714356
6,0.0014882142857143574
7,0.0017088214285714846
8,0.0021833571428570868
9,0.002696892857142887
10,0.002762035714285714
11,0.0025191428571428023
12,0.0021298928571428836
13,0.0018350357142857883
14,0.0017314285714286472
15,0.0018592499999999948
16,0.0018655714285714506
17,0.0016158214285715035
18,0.0011651785714285776
19,0.0009286071428571218
20,0.001135928571428581
21,0.0015531428571428306
22,0.001893642857142806
23,0.0018408214285713597
24,0.0015411428571428282
25,0.001229142857142916
26,0.0012939642857142124
27,0.0016096071428570724
28,0.0019887857142857155
29,0.002004321428571489
30,0.0017543571428571881
31,0.0013783928571427851
32,0.0012553928571428737
33,0.0014821071428571032
34,0.0019040357142857645
35,0.0021217500000000303
36,0.001961678571428647
37,0.0015957857142856722
38,0.001301571428571486
39,0.0014223214285714444
40,0.0017962499999999437
41,0.002144035714285662
42,0.002090142857142904
43,0.001777178571428552
44,0.001422535714285646
45,0.0014051785714286273
46,0.0016686428571427976
47,0.002053821428571366
48,0.0021735000000000122
49,0.0019743214285714065
50,0.0015983571428571557
51,0.0014106428571428202
52,0.0015817500000000705
53,0.0019281428571427941
54,0.002179285714285736
55,0.0020977500000000254
56,0.0018071785714286344
57,0.0015052499999999977
58,0.0015495000000000354
59,0.0018440357142857522
60,0.0022150714285713896
61,0.0022448571428571183
62,0.0020050714285714225
63,0.001638857142857069
64,0.0015461785714286184
65,0.0017583214285713617
66,0.0021327857142857455
67,0.0023320714285713757
68,0.0021729642857142802
69,0.0017975357142857617
70,0.001519499999999953
71,0.0016373571428572019
72,0.001955892857142924
73,0.002287607142857137
74,0.0022489285714286213
75,0.00195653571428568
76,0.001584857142857134
77,0.0015336428571428838
78,0.00178167857142861
79,0.00213235714285719
80,0.002216142857142854
81,0.0019967142857142154
82,0.001619464285714299
83,0.001409678571428533
84,0.001584857142857134
85,0.0019497857142856693
86,0.0021455357142856814
87,0.0019678928571429262
88,0.0016278214285713538
89,0.0012949285714284997
90,0.0013578214285713739
91,0.0016597500000000106
92,0.0019788214285714643
93,0.0019582500000000533
94,0.0016990714285714352
95,0.0013336071428571676
96,0.001232892857142888
97,0.0014500714285714217
98,0.0018171428571428854
99,0.001982357142857083
100,0.0017867142857142478
101,0.001414178571428591
102,0.001186607142857099
103,0.0013112142857143589
104,0.001615392857142796
105,0.001910357142857068
106,0.00187585714285708
107,0.0016024285714285062
108,0.001246928571428642
109,0.0012420000000000289
110,0.0015093214285715004
111,0.0018665357142857379
112,0.0019219285714285154
113,0.001688571428571452
114,0.0013352142857142116
115,0.0012014999999999632
116,0.0013699285714285534
117,0.001723714285714349
118,0.0019714285714285446
119,0.0018153214285714877
120,0.0014796428571427964
121,0.0011836071428572125
122,0.001255928571428606
123,0.0015565714285714247
124,0.0019258928571428413
125,0.0019457142857143188
126,0.001660178571428566
127,0.0012926785714285469
128,0.0012103928571429025
129,0.0014323928571428723
130,0.0017920714285714163
131,0.001953857142857172
132,0.0017682857142857652
133,0.0014026071428571438
134,0.001160571428571495
135,0.0013165714285713749
136,0.0016650000000000022
137,0.001927178571428507
138,0.0018336428571427937
139,0.0015475714285714608
140,0.0012248571428572117
141,0.0012370714285714155
142,0.0015042857142857104
143,0.001849607142857122
144,0.0019077857142857368
145,0.001704642857142805
146,0.001346142857142902
147,0.001169464285714282
148,0.0013453928571428163
149,0.001721464285714244
150,0.001970785714285788
151,0.0018337499999999706
152,0.0014768571428571116
153,0.0011795357142857098
154,0.0012699642857143597
155,0.001581964285714272
156,0.001932214285714297
157,0.0019141071428571926
158,0.00162942857142855
159,0.0012565714285713626
160,0.0012028928571428058
161,0.0014652857142856642
162,0.0018688928571428676
163,0.0020128928571428975
164,0.0017951785714286318
165,0.0014200714285714916
166,0.0011920714285714442
167,0.0013466785714286343
168,0.0017345357142857106
169,0.0020389285714285015
170,0.0019426071428571034
171,0.0016368214285714699
172,0.0012566785714285395
173,0.001274142857142887
174,0.0015763928571429023
175,0.0019313571428571867
176,0.001962321428571404
177,0.0016783928571428473
178,0.0012947142857142983
179,0.0011931428571429084
180,0.001409142857142801
181,0.0017583214285713617
182,0.0019745357142857602
183,0.0018086785714285015
184,0.0014569285714286094
185,0.0011718214285714116
186,0.001269107142857097
187,0.001571357142857112
188,0.0018957857142857344
189,0.0018686785714285138
190,0.0016068214285713874
191,0.0012620357142857077
192,0.001193249999999933
193,0.0014200714285714916
194,0.001851321428571495
195,0.0020725714285713794
196,0.0019458214285714957
197,0.00168246428571435
198,0.0016264285714285114
199,0.001984071428571456
200,0.002471035714285768
201,0.002834464285714284
202,0.0027370714285714216
203,0.002238321428571461
204,0.0016015714285713958
205,0.0013180714285713944
206,0.0014438571428571428
207,0.0017260714285714787
208,0.0016765714285714496
209,0.0013642500000000065
210,0.0010257857142857826
211,0.0009878571428572006
212,0.0012474642857142218
213,0.0016417499999999308
214,0.001869214285714246
215,0.0017510357142857711
216,0.0014364642857142228
217,0.001172678571428522
218,0.0012973928571428062
219,0.0016501071428571378
220,0.001976464285714335
221,0.001929535714285789
222,0.001628892857142818
223,0.0012771428571429259
224,0.0012556071428570753
225,0.0015275357142857818
226,0.0019187142857142751
227,0.002055964285714294
228,0.0018099642857143192
229,0.0014456785714285405
230,0.0012767142857142183
231,0.0014396785714286154
232,0.0017896071428571097
233,0.002038178571428568
234,0.0019151785714285044
235,0.001612714285714288
236,0.0012974999999999831
237,0.0013532142857142914
238,0.001715785714285697
239,0.00207610714285715
240,0.0021084642857142097
241,0.0018550714285714674
242,0.0014732142857143162
243,0.0013483928571428549
244,0.0015802500000000512
245,0.0019602857142856527
246,0.0021459642857142368
247,0.0019776428571428237
248,0.0016538571428571102
249,0.0014057142857143593
250,0.00154082142857145
251,0.0018821785714285358
252,0.0022008214285714344
253,0.0021527142857142474
254,0.0019008214285713722
255,0.0015308571428571988
256,0.001499571428571451
257,0.0017796428571428585
258,0.002138678571428646
259,0.002208857142857111
260,0.001978607142857111
261,0.0016442142857142374
262,0.0014890714285714678
263,0.0016813928571428858
264,0.0020238214285714356
265,0.002246249999999961
266,0.002093357142857144
267,0.0017573571428570745
268,0.0014424642857143004
269,0.001492178571428531
270,0.0017536071428571021
271,0.002070000000000048
272,0.002087357142857219
273,0.0018317142857142191
274,0.0014468571428571816
275,0.001316035714285643
276,0.0015276428571428064
277,0.0018732857142857487
278,0.0020272500000000295
279,0.0018486428571428347
280,0.0015108214285713675
281,0.001245750000000001
282,0.0013211785714286098
283,0.0015903214285714793
284,0.0018909642857142981
285,0.0018772500000000746
286,0.0016040357142857026
287,0.0012153214285713634
288,0.001182214285714218
289,0.0014210357142857787
290,0.0017791071428571266
291,0.0018947142857142702
292,0.0016897499999999406
293,0.0013214999999999883
294,0.0011236071428572002
295,0.0012949285714284997
296,0.0016468928571428977
297,0.001910999999999977
298,0.0018159642857142444
299,0.0015083571428572131
300,0.0011368928571428682
301,0.001138071428571357
302,0.0014026071428571438
303,0.001755964285714232
304,0.0018246428571428298
305,0.0016661785714286433
306,0.001337892857142872
307,0.0011647500000000223
308,0.0013471071428571894
309,0.0017312142857142934
310,0.0019326428571428522
311,0.0017825357142857204
312,0.0014216785714285356
313,0.0010897499999999688
314,0.0011668928571427982
315,0.001513392857142851
316,0.0018726428571428399
317,0.001876392857142812
318,0.0016147500000000393
319,0.0012654642857143016
320,0.0011944285714285741
321,0.0014015357142856796
322,0.0017819999999999885
323,0.0019387499999999542
324,0.0017448214285714922
325,0.00137239285714286
326,0.0011490000000000476
327,0.0012992142857143562
328,0.001690178571428496
329,0.0020189999999999995
330,0.0018963214285714664
331,0.0015153214285714256
332,0.0011411785714285725
333,0.0011850000000000551
334,0.0014858571428570753
335,0.001886571428571417
336,0.0019428214285714571
337,0.0016892142857143609
338,0.0012992142857143562
339,0.0011920714285714442
340,0.001410857142857174
341,0.001787785714285712
342,0.0019763571428571577
343,0.0018125357142856505
344,0.0014591785714285622
345,0.001184464285714323
346,0.0012807857142857213
347,0.0016274999999999753
348,0.0019592142857143406
349,0.0019187142857142751
350,0.0016396071428571547
351,0.001285928571428536
352,0.0012581785714285588
353,0.001511250000000075
354,0.0018957857142857344
355,0.002006357142857088
356,0.0018185357142857278
357,0.0014996785714286277
358,0.0012715714285714036
359,0.0013643571428571834
360,0.0017222142857143297
361,0.0020362499999999934
362,0.001957928571428523
363,0.0016536428571429086
364,0.0013231071428571844
365,0.0013852499999999729
366,0.0016638214285713611
367,0.002007214285714351
368,0.0020441785714286455
369,0.0017757857142857096
370,0.001352892857142913
371,0.0011764285714286466
372,0.0013598571428571253
373,0.0017857499999999605
374,0.0020100000000000356
375,0.001850785714285763
376,0.0014935714285713734
377,0.0012097499999999936
378,0.001337142857142786
379,0.001648392857142917
380,0.001978607142857111
381,0.0019091785714285792
382,0.0016164642857142602
383,0.0012541071428572082
384,0.001225714285714322
385,0.0014645357142857307
386,0.0018113571428571618
387,0.0019067142857142727
388,0.0017368928571428403
389,0.0014801785714285286
390,0.0014316428571427865
391,0.0016896428571429162
392,0.0022018928571428983
393,0.002637535714285783
394,0.002649749999999987
395,0.002342571428571359
396,0.001973357142857119
397,0.001840178571428603
398,0.0018378214285714733
399,0.0020077499999999306
400,0.0018867857142857705
401,0.001530750000000022
402,0.0010959642857142477
403,0.0009037500000000063
404,0.0010116428571428518
405,0.001392964285714271
406,0.0016643571428570933
407,0.0015961071428572029
408,0.0013333928571428138
409,0.0012422142857142302
410,0.0014538214285713938
411,0.001660607142857121
412,0.0019146428571429246
413,0.0018289285714285341
414,0.0015183214285714643
415,0.0011645357142856686
416,0.0011156785714285483
417,0.0014993571428570972
418,0.002117464285714326
419,0.002292321428571396
420,0.002020821428571397
421,0.001550785714285701
422,0.0012536785714285007
423,0.0013808571428570917
424,0.0017441785714285831
425,0.0021309642857143475
426,0.002114571428571464
427,0.0017381785714285058
428,0.0012921428571428149
429,0.001222392857142905
430,0.001657821428571436
431,0.0022452857142856737
432,0.002230499999999986
433,0.0018341785714285257
434,0.0013235357142857395
435,0.0011449285714285448
436,0.0013052142857142813
437,0.0017095714285714182
438,0.001986642857142787
439,0.0018739285714285054
440,0.0014814642857143465
441,0.0011511428571428237
442,0.0012501428571428822
443,0.0016491428571428505
444,0.0020125714285713667
445,0.0019213928571427832
446,0.0015908571428572113
447,0.0011471785714284976
448,0.0011330357142857192
449,0.0014573571428571645
450,0.0019326428571428522
451,0.0021414642857143307
452,0.0018884999999999913
453,0.001349571428571496
454,0.001133678571428628
455,0.0013325357142857034
456,0.0015911785714285895
457,0.0018313928571428407
458,0.001775035714285776
459,0.0013778571428572051
460,0.0008597142857143223
461,0.0007414285714285184
462,0.0009641785714285739
463,0.0012567857142857161
464,0.0012263571428570788
465,0.0009635357142856651
466,0.0005973214285714638
467,0.00043339285714293194
468,0.0005534999999999814
469,0.0008707500000000376
470,0.0010162499999999345
471,0.0008633571428571178
472,0.0005468571428571473
473,0.000216964285714332
474,0.0003003214285714405
475,0.0006091071428571126
476,0.0008632499999999409
477,0.0007363928571428805
478,0.0004608214285713785
479,8.721428571425756e-05
480,-3.0107142857106947e-05
481,0.0003388928571429314
482,0.0007761428571428601
483,0.0008459999999999468
484,0.00047871428571428154
485,-9.128571428568425e-05
486,-0.00027439285714286096
487,2.903571428564281e-05
488,0.0004546071428570997
489,0.0006823928571427931
490,0.0004992857142856926
491,9.375000000006699e-05
492,-0.0002557500000000244
493,-0.00015503571428574504
494,0.00017024999999998769
495,0.0004821428571428754
496,0.0005589642857143267
497,0.00033792857142864413
498,-0.00014485714285714023
499,-0.0003075000000000066
500,-0.00014250000000001048
501,0.0003017142857142829
502,0.0005396785714285812
503,0.00030278571428574705
504,-0.00011196428571427219
505,-0.00034007142857142016
506,-0.00018632142857141686
507,0.00018385714285718637
508,0.0005023928571429081
509,0.00044957142857146186
510,9.064285714285144e-05
511,-0.0003026785714285702
512,-0.0002449285714285868
513,-3.77142857143044e-05
514,0.0003713571428571681
515,0.0005238214285714297
516,0.0003919285714285792
517,8.025000000004517e-05
518,-0.00012374999999999707
519,2.5714285714225785e-05
520,0.00037296428571421204
521,0.0006784285714286195
522,0.000637928571428554
523,0.00036910714285721524
524,-5.66785714285954e-05
525,-9.267857142860285e-05
526,0.00028028571428576147
527,0.0007442142857143556
528,0.0007975714285713817
529,0.0005081785714286318
530,5.775000000005954e-05
531,-5.989285714283556e-05
532,0.0001760357142857113
533,0.0006002142857143257
534,0.0008620714285714522
535,0.0006543214285714376
536,0.00023046428571435384
537,-1.714285714289332e-05
538,9.34285714285364e-05
539,0.00048589285714284767
540,0.0008551071428570875
541,0.0008312142857142594
542,0.0005472857142857025
543,0.0001359642857143533
544,9.610714285719674e-05
545,0.00037864285714291106
546,0.0008078571428571633
547,0.000951428571428638
548,0.000712607142857077
549,0.0003011785714285509
550,0.0001215000000000442
551,0.0002959285714285593
552,0.0007420714285714272
553,0.0010452857142857295
554,0.0009124285714285918
555,0.0005115000000000488
556,0.00014592857142860436
557,0.00018460714285711992
558,0.00045878571428577936
559,0.0008735357142857225
560,0.0009454285714285606
561,0.0006490714285714461
562,0.0001961785714285672
563,9.664285714292882e-05
564,0.0003432857142856603
565,0.0006962142857143456
566,0.0008241428571428701
567,0.0006630000000000231
568,0.0003312857142856578
569,1.639285714288365e-05
570,7.167857142863657e-05
571,0.0004045714285714906
572,0.0008499642857142728
573,0.0008213571428571852
574,0.000525964285714358
575,0.00015503571428574504
576,0.00017410714285713677
577,0.0005513571428572054
578,0.0011412857142857494
579,0.0014445000000000516
580,0.0013049999999999277
581,0.00095753571428574
582,0.0006949285714285277
583,0.0005442857142856639
584,0.0004897499999999967
585,0.0005134285714286234
586,0.0004465714285714232
587,0.00018300000000007595
588,-0.00024825000000000384
589,-0.00018642857142859372
590,0.00015203571428570634
591,0.0005216785714285013
592,0.0005399999999999596
593,0.0002946428571428937
594,-0.00020453571428569818
595,-0.00033900000000003215
596,1.3392857142844962e-05
597,0.0005487857142857219
598,0.0009069642857142465
599,0.0006762857142856912
600,0.00024321428571428985
601,5.882142857137142e-05
602,0.00016221428571431114
603,0.0004938214285714996
604,0.0008135357142857101
605,0.0006997499999999641
606,0.0004123928571428134
607,0.00019692857142850073
608,0.00030375000000003435
609,0.000578785714285652
610,0.000988714285714311
611,0.001100785714285684
612,0.0008827500000000401
613,0.00036985714285714877
614,0.0002006785714286252
615,0.0004605000000000002
616,0.0009490714285713559
617,0.0012571071428570946
618,0.0011495357142857798
619,0.0007720714285713574
620,0.00038228571428570643
621,0.00047828571428572633
622,0.0008913214285714487
623,0.0012309642857143135
624,0.0011664642857142431
625,0.000854892857142886
626,0.0005033571428571954
627,0.0004902857142857288
628,0.0007228928571428587
629,0.0011377499999999786
630,0.001348928571428587
631,0.001213499999999966
632,0.0008200714285713673
633,0.0005008928571428889
634,0.0006342857142857586
635,0.0010134642857142495
636,0.0013899642857142323
637,0.0013263214285714245
638,0.0010018928571428022
639,0.0006488571428570923
640,0.0005845714285713756
641,0.0008518928571428473
642,0.0012468214285714652
643,0.001355142857142866
644,0.001087392857142839
645,0.0005988214285714832
646,0.0004406785714285227
647,0.0006846428571428983
648,0.0010598571428572154
649,0.0012621428571428846
650,0.0011356071428572027
651,0.0007363928571428805
652,0.0003671785714286407
653,0.00041378571428565586
654,0.0007060714285714198
655,0.0010488214285715002
656,0.0010138928571428048
657,0.0006663214285714402
658,0.00024482142857148607
659,0.00015578571428567856
660,0.0003367500000000031
661,0.0006581785714285868
662,0.0007738928571429073
663,0.0005574642857143074
664,0.0001529999999999936
665,-0.0001415357142857232
666,1.4464285714309102e-05
667,0.00040392857142858166
668,0.0006606428571428934
669,0.0005238214285714297
670,9.867857142852797e-05
671,-0.00031350000000000784
672,-0.0002641071428571554
673,-1.1464285714270415e-05
674,0.0003612857142857402
675,0.0003422142857143484
676,-7.285714285742984e-06
677,-0.00043607142857144
678,-0.0006388928571428412
679,-0.00036717857142856453
680,0.00017367857142858156
681,0.000390321428571383
682,0.00013157142857147213
683,-0.0003316071428571123
684,-0.0006823928571428694
685,-0.0005802857142857475
686,-0.0001413214285714456
687,0.00026871428571431416
688,0.00020153571428573562
689,-7.007142857144037e-05
690,-0.0004376785714285601
691,-0.000493499999999969
692,-0.00028821428571426113
693,9.696428571430716e-05
694,0.00024749999999999414
695,0.00010810714285719923
696,-0.0002566071428571348
697,-0.000516428571428586
698,-0.000266571428571462
699,6.825000000004268e-05
700,0.0003656785714286213
701,0.0005402142857143133
702,0.0003614999999999416
703,-0.00015471428571429057
704,-0.0003250714285714551
705,-3.685714285711786e-05
706,0.00047571428571424287
707,0.0006261428571429053
708,0.0004101428571428605
709,9.7500000000496e-06
710,-0.00011796428571427343
711,-0.00033150000000001153
712,-0.0005786785714285513
713,-0.00044860714285717456
714,-0.0005721428571428941
715,-0.0009292500000000306
716,-0.0012718928571428582
717,-0.0012567857142857161
718,-0.0008889642857143189
719,-0.0003906428571428374
720,-0.0002813571428571495
721,-0.0005375357142857291
722,-0.000953571428571414
723,-0.0010136785714286033
724,-0.000710464285714301
725,-0.0002524285714286074
726,-5.2821428571446304e-05
727,-0.0002826428571428912
728,-0.0006146785714285587
729,-0.0006955714285714367
730,-0.0003611785714285633
731,8.05714285714235e-05
732,0.0004248214285713711
733,0.00039364285714279997
734,8.635714285714715e-05
735,-0.0002494285714285687
736,-0.0001431428571428433
737,0.0002809285714285181
738,0.0007375714285713693
739,0.0008142857142856436
740,0.0005441785714286393
741,0.00012814285714287825
742,5.3892857142910446e-05
743,0.00031960714285718595
744,0.0006972857142856575
745,0.0009348214285714005
746,0.000824785714285779
747,0.00048042857142850236
748,0.00013414285714280337
749,0.0001529999999999936
750,0.0004517142857142379
751,0.0008763214285714075
752,0.0008480357142856982
753,0.0005126785714285375
754,0.00012964285714289758
755,2.1535714285698354e-05
756,0.0001675714285714796
757,0.0005164285714285099
758,0.0006874285714285833
759,0.0004965000000000077
760,0.00013114285714291692
761,-9.685714285713028e-05
762,4.585714285708166e-05
763,0.0005076428571428997
764,0.000960214285714248
765,0.0010720714285714194
766,0.0009093214285713762
767,0.0006268928571428388
768,0.0007381071428571013
769,0.0011065714285714075
770,0.0014574642857143414
771,0.0011043214285714547
772,0.000496821428571386
773,-0.00012910714285716552
774,-0.00036942857142859356
775,-0.00013103571428574006
776,0.00037392857142849934
777,0.0006656785714285312
778,0.0005095714285714743
779,9.085714285720518e-05
780,-0.00033685714285718
781,-0.00020410714285714297
782,0.00037682142857136113
783,0.0008284285714285744
784,0.0008510357142857369
785,0.00045835714285707193
786,-4.060714285716622e-05
787,-0.00012632142857140442
788,0.0001529999999999936
789,0.0005718214285714395
790,0.0007190357142857096
791,0.0006367500000000652
792,0.0003388928571429314
793,0.00014614285714280583
794,0.0003516428571428674
795,0.0007673571428570979
796,0.0010029642857142663
797,0.0008333571428571876
798,0.0004618928571428427
799,4.628571428578913e-05
800,0.00017442857142851512
801,0.0005878928571427926
802,0.0010078928571428797
803,0.001083964285714245
804,0.0008485714285714303
805,0.00041592857142858417
806,0.00017303571428567264
807,0.00037864285714291106
808,0.0008745000000000098
809,0.001070678571428577
810,0.0010018928571428022
811,0.000726535714285654
812,0.0005272500000000236
813,0.0006163928571428556
814,0.0009393214285714586
815,0.0012854999999999807
816,0.0012470357142856667
817,0.0009678214285713694
818,0.000623999999999977
819,0.0006420000000000568
820,0.0009058928571427824
821,0.0013608214285714126
822,0.001550785714285701
823,0.0013018928571428643
824,0.0008453571428571901
825,0.0006355714285714243
826,0.0008057142857142351
827,0.0012576428571428266
828,0.0015811071428571616
829,0.0014801785714285286
830,0.0011660357142856878
831,0.0007692857142856724
832,0.0007458214285713995
833,0.0010650000000000301
834,0.001470000000000076
835,0.0014911071428570669
836,0.0011920714285714442
837,0.0007354285714285932
838,0.0006425357142857889
839,0.0008996785714285035
840,0.0013380000000000488
841,0.0015172500000000002
842,0.0012961071428571407
843,0.0008853214285713713
844,0.0005510357142856747
845,0.000630642857142811
846,0.0010165714285714652
847,0.0013626428571428104
848,0.0012784285714285914
849,0.0009740357142856481
850,0.0006002142857143257
851,0.0005337857142856807
852,0.0008008928571427987
853,0.0012352500000000178
854,0.0012917142857142596
855,0.0010414285714285805
856,0.0005995714285714168
857,0.0003658928571428228
858,0.000579964285714293
859,0.0009863571428571812
860,0.0012159642857142725
861,0.0011033571428571674
862,0.0007363928571428805
863,0.00029892857142859797
864,0.0003049285714285231
865,0.0006995357142857626
866,0.0011148214285714379
867,0.0011138571428571506
868,0.0008605714285714328
869,0.0004948928571428114
870,0.00034875000000000563
871,0.0005182500000000598
872,0.000816964285714304
873,0.0009884999999999573
874,0.0009924642857142832
875,0.000669750000000034
876,0.0003560357142857486
877,0.0004656428571428149
878,0.0008213571428571852
879,0.0010902857142857008
880,0.0008887499999999652
881,0.0005120357142857809
882,0.00019660714285712238
883,0.0003712499999999912
884,0.0007278214285714718
885,0.0010553571428571576
886,0.0011112857142856671
887,0.0008898214285714293
888,0.0004725000000000027
889,0.000206357142857172
890,0.0005063571428570819
891,0.000988821428571488
892,0.0013600714285714791
893,0.0012447857142857137
894,0.0007432500000000683
895,0.00033417857142851965
896,0.0003218571428571388
897,0.0005932499999999611
898,0.0009850714285713634
899,0.001038964285714274
900,0.0008481428571428751
901,0.0005393571428572029
902,0.00043349999999995654
903,0.0006805714285713955
904,0.001226785714285786
905,0.0014357142857142893
906,0.001201714285714317
907,0.0007937142857142326
908,0.00047389285714284515
909,0.0006088928571429112
910,0.001057285714285732
911,0.00156760714285714
912,0.001584857142857134
913,0.0010588928571429283
914,0.0005828571428571548
915,0.0006195000000000712
916,0.0008261785714286215
917,0.0013434642857142417
918,0.0013506428571428079
919,0.0010420714285714894
920,0.0005460000000000369
921,0.00026710714285711794
922,0.0004861071428572014
923,0.0009212142857143541
924,0.0012800357142857877
925,0.0012053571428571124
926,0.0007795714285714541
927,0.00031296428571435186
928,0.0003121071428570892
929,0.0006298928571428775
930,0.0009147857142857216
931,0.0009120000000000366
932,0.0006799285714286388
933,-1.87500000000134e-05
934,-0.0009625714285714539
935,-0.0014267142857142495
936,-0.000864321428571405
937,8.282142857137638e-05
938,0.000521357142857123
939,-1.7142857142969449e-06
940,-0.0010902857142857008
941,-0.0017857500000000367
942,-0.001580357142857152
943,-0.0006223928571428568
944,0.00017185714285718388
945,0.000103178571428586
946,-0.000825857142857167
947,-0.0017454642857142489
948,-0.0019159285714285903
949,-0.0011106428571428344
950,-0.00011357142857139227
951,0.0003453214285714117
952,-0.0001262142857143037
953,-0.0009023571428571638
954,-0.001239535714285722
955,-0.0007537499999999753
956,0.0003018214285714598
957,0.0008619642857142753
958,0.0003172500000000562
959,-0.0010675714285714375
960,-0.0021054642857143233
961,-0.002142964285714274
962,-0.0013566428571428852
963,-0.0005766428571428759
964,-0.0003952499999999962
965,-0.0011101071428571783
966,-0.0020569285714285815
967,-0.0023893928571428803
968,-0.0017446071428571385
969,-0.0006606428571428934
970,-6.374999999998465e-05
971,-0.0005209285714285678
972,-0.0015902142857143024
973,-0.0022955357142857126
974,-0.0020701071428571487
975,-0.0010862142857142741
976,-0.00028478571428574336
977,-0.0003659999999999997
978,-0.0013183928571428487
979,-0.002092821428571412
980,-0.002106857142857166
981,-0.0013336071428571676
982,-0.00048792857142859904
983,-0.0002765357142857131
984,-0.0009182142857143155
985,-0.0017736428571428573
986,-0.0021618214285714643
987,-0.0017351785714285434
988,-0.0007701428571428589
989,-1.6821428571438853e-05
990,-0.00022017857142857215
991,-0.0012699642857142836
992,-0.002078357142857179
993,-0.001883785714285732
994,-0.0008465357142856788
995,-5.035714285713969e-06
996,3.953571428577821e-05
997,-0.0008914285714285494
998,-0.0018250714285714612
999,-0.0021159642857143065
1000,-0.0015056785714285528
1001,-0.0004528928571428789
1002,0.000306214285714341
1003,2.1321428571496882e-05
1004,-0.0011504999999999907
1005,-0.0019871785714285954
1006,-0.0017471785714285458
1007,-0.0007332857142857411
1008,0.00015075000000004074
1009,0.00012407142857137542
1010,-0.0007325357142857313
1011,-0.0015192857142857516
1012,-0.001564821428571455
1013,-0.0008945357142856888
1014,-0.00017432142857141437
1015,0.00015664285714278898
1016,-0.0004753928571428645
1017,-0.0013776428571428516
1018,-0.0016298571428571052
1019,-0.0011272499999999954
1020,-0.00034028571428569777
1021,0.0001360714285713779
1022,-0.00012267857142860905
1023,-0.001097999999999999
1024,-0.0018280714285714237
1025,-0.0016236428571428263
1026,-0.0006454285714285746
1027,0.0002512499999999664
1028,0.0003012857142857277
1029,-0.0007088571428571809
1030,-0.0017427857142857407
1031,-0.001978071428571455
1032,-0.0012751071428571744
1033,-0.00028328571428572403
1034,0.00012910714285716552
1035,-0.00032292857142860294
1036,-0.0012737142857142559
1037,-0.0018695357142857003
1038,-0.0016354285714285511
1039,-0.0006978214285714657
1040,2.5500000000024313e-05
1041,-3.7071428571395465e-05
1042,-0.0008966785714285409
1043,-0.0017886428571428224
1044,-0.0018954642857142798
1045,-0.0009906428571428857
1046,2.9892857142905475e-05
1047,0.0003751071428571403
1048,-0.0003297857142857146
1049,-0.0013982142857142626
1050,-0.0019147500000000254
1051,-0.0013981071428571619
1052,-0.0003807857142856871
1053,0.00026839285714278356
1054,7.92857142849966e-06
1055,-0.000977678571428596
1056,-0.001756071428571409
1057,-0.0016764642857142727
1058,-0.0007489285714285389
1059,0.00010435714285707474
1060,0.0001956428571428351
1061,-0.0006233571428571441
1062,-0.0015722142857142985
1063,-0.0018834642857142774
1064,-0.0012589285714285684
1065,-0.0002955000000000041
1066,0.0001854642857142303
1067,-0.00026560714285717477
1068,-0.0012805714285714436
1069,-0.0019485000000000038
1070,-0.0016841785714285708
1071,-0.0007134642857142636
1072,7.832142857147061e-05
1073,3.921428571424761e-05
1074,-0.0008989285714285699
1075,-0.0017793214285714042
1076,-0.0019173214285714327
1077,-0.0011593928571428538
1078,-0.00022424999999999886
1079,0.00013028571428565426
1080,-0.0005435357142857303
1081,-0.0015476785714285616
1082,-0.001961785714285748
1083,-0.0015129642857142959
1084,-0.0004886785714286087
1085,0.00017282142857147115
1086,-0.0001756071428571561
1087,-0.0012086785714286055
1088,-0.00195492857142856
1089,-0.0018142500000000235
1090,-0.000834214285714298
1091,2.7107142857068263e-05
1092,0.00013392857142860187
1093,-0.0006754285714285808
1094,-0.0016608214285713987
1095,-0.0020098928571428585
1096,-0.001357178571428541
1097,-0.00027760714285717723
1098,0.0003409285714285306
1099,-7.317857142857978e-05
1100,-0.0011857499999999887
1101,-0.001955142857142838
1102,-0.0016707857142857258
1103,-0.0006899999999999906
1104,0.00016221428571431114
1105,0.00024632142857135313
1106,-0.0006715714285714317
1107,-0.0015286071428571699
1108,-0.0016080000000000285
1109,-0.0009517500000000163
1110,-0.00012675000000003577
1111,0.00016082142857146866
1112,-0.00046896428571430805
1113,-0.001380749999999991
1114,-0.0016975714285714157
1115,-0.001124250000000033
1116,-0.00020142857142855876
1117,0.00026035714285710707
1118,-0.00014421428571430742
1119,-0.001125321428571421
1120,-0.0019150714285714038
1121,-0.0017346428571428873
1122,-0.0006729642857142741
1123,0.0003324642857142988
1124,0.0006138214285713721
1125,-0.00037275000000001055
1126,-0.0016301785714285596
1127,-0.0019301785714285456
1128,-0.0011537142857143072
1129,-0.00024825000000000384
1130,0.00015171428571432802
1131,-0.0003020357142857374
1132,-0.0012332142857142665
1133,-0.001708607142857131
1134,-0.00140582142857146
1135,-0.0004831071428571627
1136,0.00026507142857136657
1137,0.0001453928571428723
1138,-0.0007128214285714307
1139,-0.001429178571428556
1140,-0.0013726071428571374
1141,-0.00032003571428574116
1142,0.0007028571428571796
1143,0.001031571428571354
1144,0.0005366785714285426
1145,-0.0002959285714285593
1146,-0.0006354642857143235
1147,-0.0001546071428571137
1148,0.0005133214285714465
1149,0.0007084285714285495
1150,0.00017892857142857313
1151,-0.0007939285714285863
1152,-0.0015739285714285955
1153,-0.0015336428571428838
1154,-0.0005973214285714638
1155,0.00032346428571433504
1156,0.0005183571428570843
1157,-0.0002452499999999651
1158,-0.0011021785714286025
1159,-0.0013524642857142817
1160,-0.0006624642857142911
1161,0.00034982142857146976
1162,0.0008172857142856823
1163,0.00029421428571433847
1164,-0.0007085357142857264
1165,-0.0012707142857142932
1166,-0.0009153214285714536
1167,7.617857142854234e-05
1168,0.0008413928571428641
1169,0.0006774642857143322
1170,-0.00028971428571428047
1171,-0.0011179285714285772
1172,-0.0011533928571428526
1173,-0.0002979642857143107
1174,0.000608464285714356
1175,0.0008846785714286146
1176,0.00019210714285721663
1177,-0.0008282142857142968
1178,-0.00129760714285716
1179,-0.0007335000000000186
1180,0.0002660357142856538
1181,0.0008420357142857731
1182,0.0004997142857142478
1183,-0.00043907142857140257
1184,-0.0011040000000000002
1185,-0.0009310714285714283
1186,-2.432142857145944e-05
1187,0.0007361785714285268
1188,0.0008430000000000604
1189,4.832142857138828e-05
1190,-0.00088832142857141
1191,-0.0010991785714285639
1192,-0.0003523928571428771
1193,0.0005622857142857438
1194,0.0008478214285714968
1195,0.00028285714285709266
1196,-0.00048075000000003296
1197,-0.0006337500000000265
1198,-8.807142857144408e-05
1199,0.0005036785714285738
1200,0.0005344285714285897
1201,0.00015021428571430865
1202,-0.00032357142857143575
1203,-0.00039021428571428226
1204,1.0928571428538345e-05
1205,0.0005831785714285331
1206,0.0007279285714284965
1207,0.0005131071428570928
1208,5.035714285713969e-05
1209,-8.271428571427565e-05
1210,0.00019917857142860587
1211,0.0007136785714285411
1212,0.000952928571428505
1213,0.0007317857142856456
1214,0.0003864642857142339
1215,0.00014089285714281426
1216,0.00030889285714284906
1217,0.0006977142857142127
1218,0.0010185000000000396
1219,0.0008780357142857806
1220,0.0004853571428571156
1221,0.0001433571428571209
1222,0.00018417857142856471
1223,0.0005504999999999427
1224,0.0010063928571428602
1225,0.0011703214285713923
1226,0.0009228214285713981
1227,0.000436714285714349
1228,0.00010092857142863311
1229,0.0002465357142857069
1230,0.0007072500000000608
1231,0.0010258928571428073
1232,0.0009549642857142565
1233,0.0005560714285714649
1234,0.00010542857142853888
1235,5.9249999999926623e-05
1236,0.0004264285714285673
1237,0.0009612857142857122
1238,0.0009902142857143303
1239,0.0006853928571428318
1240,0.0003410357142857074
1241,0.00022489285714283167
1242,0.0004877142857142453
1243,0.000870428571428507
1244,0.001098642857142908
1245,0.0009559285714285437
1246,0.0004731428571429116
1247,0.00021225000000007252
1248,0.0004068214285714435
1249,0.000702642857142826
1250,0.00102996428571431
1251,0.0010308214285714204
1252,0.0007056428571428646
1253,0.0002588571428570877
1254,0.00026453571428578676
1255,0.0006736071428571831
1256,0.0011528571428571967
1257,0.0012228214285714602
1258,0.0009483214285714224
1259,0.000545357142857128
1260,0.00029732142857140175
1261,0.00042449999999999275
1262,0.0008775000000000485
1263,0.001254642857142788
1264,0.0011511428571428237
1265,0.0008412857142856873
1266,0.0005020714285713776
1267,0.0005427857142856445
1268,0.0009258214285714368
1269,0.0013406785714285567
1270,0.0013201071428571457
1271,0.001011428571428498
1272,0.0006155357142857452
1273,0.0004976785714284964
1274,0.000763928571428504
1275,0.0012024642857142505
1276,0.0013971428571427985
1277,0.0012058928571428444
1278,0.0008009999999999756
1279,0.0005191071428571702
1280,0.00068249999999997
1281,0.0010987499999999325
1282,0.0014092499999999778
1283,0.0013421785714285762
1284,0.0009912857142856423
1285,0.0005695714285714867
1286,0.0006097500000000216
1287,0.0009756428571428444
1288,0.0013985357142856408
1289,0.0014708571428571865
1290,0.0012192857142856895
1291,0.0007928571428571222
1292,0.0005977500000000191
1293,0.0007865357142856664
1294,0.0011667857142857738
1295,0.0014808214285714375
1296,0.0014011071428571243
1297,0.0010239642857142327
1298,0.0006649285714285977
1299,0.0007465714285714853
1300,0.0011126785714285095
1301,0.0014675357142857695
1302,0.0014360357142856677
1303,0.0011383928571428877
1304,0.0007176428571428671
1305,0.0006093214285714664
1306,0.0008824285714285094
1307,0.0013475357142857444
1308,0.0015184285714286412
1309,0.0012611785714285973
1310,0.0008053928571428567
1311,0.0005641071428571414
1312,0.000774535714285664
1313,0.0011720357142857654
1314,0.0015081428571428596
1315,0.0014249999999999526
1316,0.0010270714285714481
1317,0.0005849999999999308
1318,0.0006072857142857149
1319,0.0009007499999999677
1320,0.0013587857142856612
1321,0.001557428571428535
1322,0.0013847142857142407
1323,0.0009728571428571594
1324,0.0008552142857142643
1325,0.001271892857142782
1326,0.001884857142857196
1327,0.002211749999999973
1328,0.002123571428571428
1329,0.0017628214285714198
1330,0.0012374999999999708
1331,0.0009970714285713659
1332,0.0011001428571429273
1333,0.0013310357142856841
1334,0.0012233571428571922
1335,0.0008710714285714159
1336,0.00032989285714281536
1337,0.0001300714285714528
1338,0.000573857142857191
1339,0.0012091071428570847
1340,0.0014273571428570823
1341,0.0012170357142857367
1342,0.0007575000000000237
1343,0.0004856785714286462
1344,0.0006672857142857273
1345,0.0010861071428571734
1346,0.0014779285714285758
1347,0.0014703214285714543
1348,0.0010663928571428727
1349,0.0006458571428572059
1350,0.0007107857142856793
1351,0.001007678571428526
1352,0.001352785714285736
1353,0.0013931785714286248
1354,0.0012984642857142704
1355,0.0009778928571427972
1356,0.0007585714285714877
1357,0.0009126428571427932
1358,0.0012561428571428073
1359,0.001630500000000014
1360,0.0015646071428571011
1361,0.0011195357142856973
1362,0.0007677857142856531
1363,0.0008935714285714016
1364,0.0012384642857142581
1365,0.0016690714285713527
1366,0.001727035714285766
1367,0.001421464285714334
1368,0.0009560357142857206
1369,0.0008540357142857756
1370,0.001135928571428581
1371,0.0015946071428571836
1372,0.001767642857142856
1373,0.0016276071428571522
1374,0.0012202499999999768
1375,0.0009148928571428984
1376,0.001073464285714262
1377,0.0014523214285713745
1378,0.001833000000000037
1379,0.0018261428571428493
1380,0.0015229285714285468
1381,0.0011490000000000476
1382,0.0011390357142856444
1383,0.0015020357142857576
1384,0.002016535714285693
1385,0.0021398571428571348
1386,0.001805142857142883
1387,0.0013119642857142924
1388,0.0011903571428570712
1389,0.0013955357142857545
1390,0.0018004285714286234
1391,0.0020206071428571955
1392,0.0018718928571429063
1393,0.0015187500000000194
1394,0.001160035714285763
1395,0.0012431785714285175
1396,0.0016230000000000697
1397,0.0019697142857143237
1398,0.001912178571428618
1399,0.001613892857142929
1400,0.0011817857142856626
1401,0.0010618928571428147
1402,0.0012875357142857321
1403,0.0017261785714285033
1404,0.0019021071428571902
1405,0.00167742857142856
1406,0.0012335357142856448
1407,0.0009606428571428032
1408,0.0011001428571429273
1409,0.0014805000000000592
1410,0.001866964285714293
1411,0.0018024642857142226
1412,0.0013766785714285643
1413,0.0009351428571429312
1414,0.0009147857142857216
1415,0.0012087857142857063
1416,0.0016307142857142156
1417,0.0017607857142856683
1418,0.0015766071428571036
1419,0.0011108571428571118
1420,0.0008826428571428632
1421,0.001070785714285754
1422,0.0014606785714285817
1423,0.0017320714285714038
1424,0.0016220357142857824
1425,0.001249714285714327
1426,0.0008659285714286012
1427,0.0009320357142857156
1428,0.0012946071428571215
1429,0.00167742857142856
1430,0.0016766785714286264
1431,0.0013544999999999569
1432,0.0009150000000000753
1433,0.000810857142857202
1434,0.0010413214285714036
1435,0.0015249642857142983
1436,0.0017383928571428596
1437,0.0014951785714285698
1438,0.0010392857142856521
1439,0.000733285714285665
1440,0.0008630357142857393
1441,0.0012522857142856583
1442,0.0015958928571428491
1443,0.0015169285714286217
1444,0.0011486785714285171
1445,0.0007355357142857701
1446,0.0007088571428571047
1447,0.0010586785714285746
1448,0.0014960357142856802
1449,0.0015892500000000151
1450,0.0013393928571428912
1451,0.0008589642857142366
1452,0.0006599999999999844
1453,0.0008978571428571059
1454,0.001314964285714331
1455,0.0015868928571428852
1456,0.0014443928571428748
1457,0.001014857142857092
1458,0.0006783214285714426
1459,0.0007227857142856818
1460,0.0011708571428571243
1461,0.00167507142857143
1462,0.0015935357142857194
1463,0.0012024642857142505
1464,0.0007973571428571801
1465,0.0007418571428570736
1466,0.00093953571428566
1467,0.0013597499999999485
1468,0.001542964285714226
1469,0.0014348571428571789
1470,0.001123071428571468
1471,0.0008423571428571514
1472,0.000959678571428516
1473,0.0013192500000000352
1474,0.001663392857142806
1475,0.0016056428571428988
1476,0.0012112500000000129
1477,0.0007465714285714853
1478,0.0007918928571428349
1479,0.0012704999999999396
1480,0.0017657142857142815
1481,0.0017927142857143252
1482,0.0015048214285714424
1483,0.000992142857142905
1484,0.0007688571428571172
1485,0.0009431785714286077
1486,0.0014112857142857293
1487,0.0017196428571428462
1488,0.0016431428571429254
1489,0.0012247500000000348
1490,0.0008365714285714278
1491,0.0009331071428571797
1492,0.00132996428571422
1493,0.001730357142857183
1494,0.0016486071428571186
1495,0.0012885000000000194
1496,0.0008271428571429088
1497,0.0008361428571428726
1498,0.0012113571428571898
1499,0.001633392857142876
1500,0.0017226428571428848
1501,0.0015250714285714752
1502,0.0011008928571428608
1503,0.0008182499999999696
1504,0.0010370357142856993
1505,0.0015482142857142175
1506,0.0019319999999999433
1507,0.0019460357142856973
1508,0.0017636785714285302
1509,0.0015131785714284974
1510,0.0016641428571428918
1511,0.0020729999999999343
1512,0.002586321428571381
1513,0.002660464285714324
1514,0.0021696428571428635
1515,0.0013676785714286004
1516,0.0008899285714286062
1517,0.0009729642857143363
1518,0.001362964285714341
1519,0.0015572142857143336
1520,0.0013569642857142637
1521,0.001028785714285669
1522,0.0007736785714285535
1523,0.0008846785714286146
1524,0.0012774642857143043
1525,0.0017525357142857904
1526,0.0017165357142857828
1527,0.001369607142857175
1528,0.0009713571428571401
1529,0.0009074999999999785
1530,0.0011711785714285025
1531,0.0016231071428570941
1532,0.001831285714285664
1533,0.0016481785714285632
1534,0.0012196071428570677
1535,0.0009694285714285655
1536,0.0011425714285714151
1537,0.0016052142857143435
1538,0.0019208571428572035
1539,0.001761000000000022
1540,0.0014193214285714057
1541,0.0010720714285714194
1542,0.001108178571428604
1543,0.0014195357142857594
1544,0.0018447857142856858
1545,0.0019298571428571674
1546,0.0016736785714285877
1547,0.0012182142857142253
1548,0.0010137857142857802
1549,0.0012031071428571596
1550,0.0016437857142856823
1551,0.0019321071428571202
1552,0.0018205714285714793
1553,0.0014344285714286238
1554,0.0010951071428571373
1555,0.001143107142857147
1556,0.0015283928571428922
1557,0.0019480714285714485
1558,0.001924499999999999
1559,0.0016169999999999924
1560,0.0011920714285714442
1561,0.001132499999999987
1562,0.0013999285714286357
1563,0.0018386785714285838
1564,0.0020163214285714914
1565,0.0018387857142857606
1566,0.0013811785714286224
1567,0.0011049642857142114
1568,0.0012617142857143295
1569,0.001696392857142927
1570,0.00202253571428577
1571,0.0018568928571428651
1572,0.0014872500000000701
1573,0.0011341071428571834
1574,0.001186607142857099
1575,0.0014769642857142885
1576,0.0018182142857143496
1577,0.0017456785714286026
1578,0.001409678571428533
1579,0.001037785714285785
1580,0.000978107142857151
1581,0.0012760714285714617
1582,0.0016972500000000375
1583,0.0018814285714286022
1584,0.001709142857142863
1585,0.0012433928571428713
1586,0.0008199642857143427
1587,0.0007836428571428046
1588,0.0012511071428571695
1589,0.0018593571428571717
1590,0.0018161785714285981
1591,0.0013033928571428838
1592,0.0008578928571429246
1593,0.0009670714285714358
1594,0.0012401785714286312
1595,0.0015896785714285702
1596,0.0016705714285713722
1597,0.0014356071428571124
1598,0.0010382142857143404
1599,0.0007782857142857885
1600,0.0009858214285714492
1601,0.00144482142857143
1602,0.0016781785714286457
1603,0.0015008571428571165
1604,0.0011863928571428975
1605,0.0008711785714285928
1606,0.0007880357142856858
1607,0.0010869642857142838
1608,0.0015464999999999967
1609,0.001701428571428565
1610,0.0014712857142857416
1611,0.00099257142857146
1612,0.000822428571428497
1613,0.0010077857142857028
1614,0.0014913214285714206
1615,0.0017924999999999714
1616,0.0016110000000000672
1617,0.0011428928571427933
1618,0.0008147142857143511
1619,0.0009537857142857676
1620,0.0013281428571428223
1621,0.0016926428571428025
1622,0.001637142857142848
1623,0.001297071428571428
1624,0.0008901428571428077
1625,0.0008666785714285348
1626,0.0011488928571428707
1627,0.001589892857142924
1628,0.0017196428571428462
1629,0.0014725714285714073
1630,0.0010262142857143377
1631,0.0007941428571427878
1632,0.0009581785714284966
1633,0.001384071428571484
1634,0.0017209285714285118
1635,0.0015961071428572029
1636,0.0011756785714285606
1637,0.0007886785714285948
1638,0.0008352857142857622
1639,0.0011619642857143373
1640,0.0015763928571429023
1641,0.0016222499999999837
1642,0.001337892857142872
1643,0.0008902499999999845
1644,0.0007653214285714987
1645,0.000986464285714358
1646,0.0014110714285713755
1647,0.0016554642857143063
1648,0.0015012857142856716
1649,0.0010659642857143174
1650,0.0007424999999999824
1651,0.0008574642857142172
1652,0.0012226071428571065
1653,0.0015940714285714514
1654,0.0015763928571429023
1655,0.0012331071428570897
1656,0.0008040000000000142
1657,0.0007739999999999319
1658,0.001099607142857195
1659,0.0015229285714285468
1660,0.0015849642857143108
1661,0.0013302857142857504
1662,0.0009371785714285304
1663,0.0007700357142857582
1664,0.0010195714285715037
1665,0.0013909285714285196
1666,0.0016183928571428348
1667,0.0015042857142857104
1668,0.0011220000000000039
1669,0.0007373571428571677
1670,0.0007736785714285535
1671,0.0010886785714285046
1672,0.00149282142857144
1673,0.0014931428571428183
1674,0.0011977499999999911
1675,0.000727178571428563
1676,0.0005616428571428348
1677,0.0007702499999999597
1678,0.001234499999999932
1679,0.0014206071428570714
1680,0.0011780357142856905
1681,0.0008166428571429257
1682,0.0005870357142856822
1683,0.0007023214285714475
1684,0.0010669285714286047
1685,0.001345714285714347
1686,0.0012069642857143086
1687,0.0009213214285713787
1688,0.0005823214285714227
1689,0.0006337500000000265
1690,0.0009791785714286152
1691,0.0013309285714285073
1692,0.0014638928571428218
1693,0.0014513571428570872
1694,0.0013486071428572086
1695,0.00140421428571434
1696,0.0015851785714285122
1697,0.001994678571428616
1698,0.002330249999999978
1699,0.0019938214285713535
1700,0.0013306071428571288
1701,0.0006517499999999541
1702,0.0005271428571428467
1703,0.0007878214285714844
1704,0.0010660714285714943
1705,0.0010168928571428434
1706,0.0007880357142856858
1707,0.00044935714285710814
1708,0.00043007142857136267
1709,0.0008393571428571127
1710,0.0013279285714286207
1711,0.0015505714285714996
1712,0.0014094642857143316
1713,0.0009615000000000659
1714,0.0006082500000000022
1715,0.0007225714285714804
1716,0.0011740714285713644
1717,0.001606607142857186
1718,0.0015593571428571095
1719,0.0012029999999999827
1720,0.000816964285714304
1721,0.0008158928571428398
1722,0.0011482499999999618
1723,0.0014734285714285177
1724,0.0015370714285714777
1725,0.0014155714285714336
1726,0.0010346785714285696
1727,0.0008434285714286156
1728,0.0009939642857143027
1729,0.0014032500000000527
1730,0.0017697857142857844
1731,0.0016247142857142905
1732,0.0012302142857142278
1733,0.0008763214285714075
1734,0.0009231428571429286
1735,0.0013105714285714498
1736,0.0017485714285714643
1737,0.0017703214285713642
1738,0.0014886428571429125
1739,0.0010570714285713784
1740,0.0009544285714285244
1741,0.0012175714285714687
1742,0.0016688571428571514
1743,0.0018443571428571304
1744,0.001633928571428608
1745,0.0012481071428571309
1746,0.0009890357142856893
1747,0.0011100000000000014
1748,0.0015452142857143311
1749,0.0019330714285714075
1750,0.0018792857142856739
1751,0.0015459642857142647
1752,0.0011065714285714075
1753,0.0010647857142856766
1754,0.0013452857142856394
1755,0.0018012857142857338
1756,0.0019152857142856812
1757,0.0016522500000000662
1758,0.0012259285714285235
1759,0.0010235357142856774
1760,0.0011981785714285462
1761,0.0016130357142856663
1762,0.0018783214285713866
1763,0.0017308928571429152
1764,0.0013531071428571145
1765,0.0010055357142857498
1766,0.0010859999999999965
1767,0.00143925000000006
1768,0.001778357142857193
1769,0.001721892857142799
1770,0.0013708928571428405
1771,0.0009327857142856492
1772,0.0008017500000000613
1773,0.0010090714285713683
1774,0.0014670000000000373
1775,0.0016425000000000166
1776,0.0014064642857142928
1777,0.0009850714285713634
1778,0.0007266428571428309
1779,0.0008634642857142945
1780,0.0012127500000000322
1781,0.0015009642857142934
1782,0.0014033571428570773
1783,0.0010236428571428543
1784,0.0005897142857143426
1785,0.0005528571428570724
1786,0.0007944642857143183
1787,0.0012561428571428073
1788,0.001448250000000024
1789,0.0011828571428571268
1790,0.0007904999999999924
1791,0.0006634285714285783
1792,0.0008271428571429088
1793,0.0010032857142856448
1794,0.0011284285714286365
1795,0.0013742142857142577
1796,0.001231178571428515
1797,0.000755035714285717
1798,0.0006786428571428209
1799,0.0009726428571428058
1800,0.0013303928571429273
1801,0.0013404642857143554
1802,0.0010893214285714135
1803,0.0006742499999999398
1804,0.000639107142857195
1805,0.0008754642857142971
1806,0.0012316071428570704
1807,0.001371749999999951
1808,0.001155857142857083
1809,0.0007097142857142152
1810,0.0005450357142857497
1811,0.0007497857142857255
1812,0.001210607142857104
1813,0.001529678571428558
1814,0.001431428571428585
1815,0.00104614285714284
1816,0.0005968928571429088
1817,0.0005678571428571137
1818,0.0008446071428571043
1819,0.001294285714285743
1820,0.0014556428571427915
1821,0.001231821428571424
1822,0.000759535714285775
1823,0.0005836071428570883
1824,0.0008599285714285238
1825,0.0013460357142857252
1826,0.0016376785714285803
1827,0.0014652857142856642
1828,0.0010164642857142883
1829,0.0006808928571429261
1830,0.0008041071428571911
1831,0.001101321428571416
1832,0.0014868214285713626
1833,0.001564714285714278
1834,0.0012740357142857104
1835,0.0007779642857142578
1836,0.0006530357142857721
1837,0.0009623571428571763
1838,0.001430357142857121
1839,0.001564178571428546
1840,0.0013755000000000754
1841,0.0009583928571428504
1842,0.0006939642857142405
1843,0.000864857142857137
1844,0.0012516428571429014
1845,0.0015682500000000488
1846,0.0014918571428571526
1847,0.0011184642857142333
1848,0.0006954642857142598
1849,0.0007529999999999656
1850,0.0010841785714285988
1851,0.001485642857142874
1852,0.0016024285714285062
1853,0.0013572857142856419
1854,0.0008740714285714546
1855,0.0006793928571429068
1856,0.0008121428571428676
1857,0.001167214285714329
1858,0.0014819999999999263
1859,0.0014172857142856544
1860,0.0009697499999999439
1861,0.0005871428571428591
1862,0.0006784285714286195
1863,0.0011195357142856973
1864,0.0014929285714286168
1865,0.0014435357142857643
1866,0.0011136428571427968
1867,0.0007022142857142708
1868,0.000648535714285714
1869,0.000846964285714234
1870,0.0012082499999999743
1871,0.0014060357142857377
1872,0.0012537857142856776
1873,0.0008568214285714606
1874,0.0007038214285714669
1875,0.0010756071428571902
1876,0.0016910357142857586
1877,0.002106642857142812
1878,0.002089392857142818
1879,0.0017797500000000354
1880,0.0014472857142857367
1881,0.0013632857142857192
1882,0.001351714285714272
1883,0.0014066785714286466
1884,0.0012309642857143135
1885,0.0008395714285714665
1886,0.0003211071428572053
1887,0.00011560714285714368
1888,0.00035282142857135615
1889,0.0008736428571428994
1890,0.0013044642857143478
1891,0.0011673214285713536
1892,0.0005953928571428894
1893,0.00013649999999993312
1894,0.00025992857142855187
1895,0.0006521785714285093
1896,0.0010894285714285904
1897,0.0012526071428571887
1898,0.001073571428571439
1899,0.0005558571428571111
1900,0.00044399999999993967
1901,0.0007557857142856505
1902,0.001205678571428643
1903,0.0013682142857143326
1904,0.0012167142857143582
1905,0.0008071071428570776
1906,0.0005887500000000553
1907,0.0007277142857142951
1908,0.0011262857142857084
1909,0.0015701785714286234
1910,0.0015736071428572172
1911,0.0010914642857143418
1912,0.0005830714285713562
1913,0.0005801785714286467
1914,0.0009221785714286414
1915,0.0013579285714285507
1916,0.001343357142857217
1917,0.0012016071428571401
1918,0.0008514642857142921
1919,0.0006665357142856416
1920,0.0008386071428571792
1921,0.001196142857142795
1922,0.0014900357142857551
1923,0.0013828928571428432
1924,0.0008551071428570875
1925,0.00039803571428568115
1926,0.0005412857142857774
1927,0.0010251428571428738
1928,0.0014192142857142288
1929,0.0012450000000000675
1930,0.0008178214285714144
1931,0.000360214285714276
1932,0.00022382142857136752
1933,0.00037800000000000214
1934,0.0007040357142856684
1935,0.0008005714285714204
1936,0.0004468928571428015
1937,-0.00015364285714282642
1938,-0.0004952142857142659
1939,-0.000492321428571404
1940,-0.00034767857142854145
1941,-0.00018964285714283388
1942,-0.0004558928571428414
1943,-0.0009905357142857088
1944,-0.0015343928571428934
1945,-0.0015868928571428852
1946,-0.0012945000000000207
1947,-0.0009476785714285895
1948,-0.0010157142857142784
1949,-0.0014873571428571709
1950,-0.0021467142857143225
1951,-0.0024617142857142733
1952,-0.0023000357142856946
1953,-0.0018371785714285645
1954,-0.0015622499999999714
1955,-0.0018807857142856931
1956,-0.0026988214285714614
1957,-0.003563785714285699
1958,-0.004044964285714287
1959,-0.003994821428571425
1960,-0.0033622499999999634
1961,-0.0028750714285714503
1962,-0.003203999999999978
1963,-0.004327071428571447
1964,-0.005407178571428543
1965,-0.005805107142857123
1966,-0.005282142857142879
1967,-0.004593
1968,-0.004384714285714253
1969,-0.005103964285714317
1970,-0.006165214285714298
1971,-0.006768964285714318
1972,-0.006531107142857121
1973,-0.005616857142857132
1974,-0.004979357142857133
1975,-0.0053423571428571695
1976,-0.00643585714285711
1977,-0.007355249999999991
1978,-0.007509214285714272
1979,-0.006965785714285719
1980,-0.006363535714285717
1981,-0.006144964285714266
1982,-0.006604607142857155
1983,-0.0074110714285714
1984,-0.00804235714285712
1985,-0.007722535714285732
1986,-0.00686282142857141
1987,-0.006340285714285722
1988,-0.006766392857142835
1989,-0.007839749999999996
1990,-0.008610857142857142
1991,-0.008439428571428589
1992,-0.007527428571428553
1993,-0.006820392857142846
1994,-0.006841071428571434
1995,-0.007718785714285684
1996,-0.008645035714285753
1997,-0.008830928571428538
1998,-0.00799124999999997
1999,-0.006963214285714311
2000,-0.006642321428571459
2001,-0.007408285714285715
2002,-0.008527714285714312
2003,-0.009064071428571399
2004,-0.008644392857142844
2005,-0.0076043571428571054
2006,-0.006834964285714256
2007,-0.0070522499999999665
2008,-0.008125607142857127
2009,-0.008950607142857107
2010,-0.008895964285714264
2011,-0.008044821428571427
2012,-0.007188428571428597
2013,-0.006942750000000001
2014,-0.0075295714285714055
2015,-0.008420571428571399
2016,-0.008903464285714285
2017,-0.008368392857142862
2018,-0.007360928571428537
2019,-0.006756642857142861
2020,-0.007047857142857161
2021,-0.007995428571428573
2022,-0.008635821428571435
2023,-0.008410392857142871
2024,-0.007493892857142853
2025,-0.006779571428571402
2026,-0.006932142857142841
2027,-0.00778928571428568
2028,-0.008624464285714265
2029,-0.008734714285714316
2030,-0.007888285714285738
2031,-0.007038321428571466
2032,-0.006831428571428561
2033,-0.007545000000000001
2034,-0.008544107142857119
2035,-0.009102107142857158
2036,-0.008693035714285686
2037,-0.007647107142857124
2038,-0.006986357142857129
2039,-0.007322250000000022
2040,-0.008369464285714251
2041,-0.009101678571428603
2042,-0.009041785714285691
2043,-0.008178107142857119
2044,-0.0073543928571428805
2045,-0.007249714285714275
2046,-0.008040428571428546
2047,-0.009034714285714302
2048,-0.009438535714285707
2049,-0.00869282142857141
2050,-0.007542535714285695
2051,-0.007098642857142856
2052,-0.007600500000000033
2053,-0.008554607142857178
2054,-0.009000428571428591
2055,-0.008513142857142825
2056,-0.007406678571428595
2057,-0.006526071428571407
2058,-0.006634607142857162
2059,-0.007780178571428539
2060,-0.00903257142857145
2061,-0.009459214285714295
2062,-0.008758607142857144
2063,-0.007860428571428584
2064,-0.007570500000000026
2065,-0.008249892857142857
2066,-0.00917978571428572
2067,-0.009483964285714309
2068,-0.008904000000000016
2069,-0.008052321428571447
2070,-0.007494535714285685
2071,-0.007549714285714261
2072,-0.008405785714285713
2073,-0.0093611785714286
2074,-0.009476035714285734
2075,-0.008481107142857144
2076,-0.007520785714285719
2077,-0.007412464285714318
2078,-0.008192785714285706
2079,-0.009038357142857174
2080,-0.009226928571428544
2081,-0.008459892857142824
2082,-0.0074660357142856985
2083,-0.0071148214285714625
2084,-0.007737749999999975
2085,-0.008749071428571448
2086,-0.009402964285714254
2087,-0.009115285714285725
2088,-0.008029607142857107
2089,-0.0072814285714285784
2090,-0.007379678571428551
2091,-0.008285892857142865
2092,-0.009163821428571391
2093,-0.009268178571428542
2094,-0.008510464285714317
2095,-0.007608321428571431
2096,-0.007244357142857107
2097,-0.007814999999999982
2098,-0.00877478571428575
2099,-0.009159857142857141
2100,-0.008628000000000035
2101,-0.007642499999999965
2102,-0.007052571428571421
2103,-0.0073295357142856895
2104,-0.008270357142857168
2105,-0.008935821428571421
2106,-0.00877478571428575
2107,-0.007875428571428549
2108,-0.007029214285714249
2109,-0.006844500000000028
2110,-0.00760317857142854
2111,-0.008506178571428538
2112,-0.008776499999999972
2113,-0.008089714285714297
2114,-0.007028678571428593
2115,-0.006478821428571407
2116,-0.0070030714285713915
2117,-0.00796285714285716
2118,-0.008517857142857162
2119,-0.00827024999999999
2120,-0.007292357142857117
2121,-0.006542678571428568
2122,-0.006551785714285709
2123,-0.007286892857142848
2124,-0.00806196428571432
2125,-0.008160857142857126
2126,-0.007328785714285679
2127,-0.006429535714285731
2128,-0.0061872857142857285
2129,-0.006861107142857113
2130,-0.007775571428571456
2131,-0.008191285714285687
2132,-0.007698214285714273
2133,-0.006720964285714308
2134,-0.006131999999999976
2135,-0.006507107142857116
2136,-0.007522178571428562
2137,-0.008252999999999996
2138,-0.008163749999999987
2139,-0.0072926785714285715
2140,-0.006463607142857164
2141,-0.006366750000000034
2142,-0.0071957142857142645
2143,-0.008143178571428576
2144,-0.00845560714285712
2145,-0.007827964285714271
2146,-0.006808392857142844
2147,-0.006279428571428599
2148,-0.006747107142857166
2149,-0.007703035714285709
2150,-0.008334535714285708
2151,-0.008024892857142849
2152,-0.006978642857142832
2153,-0.0061987499999999985
2154,-0.006269357142857171
2155,-0.007311642857142862
2156,-0.008240571428571439
2157,-0.008222035714285703
2158,-0.007241571428571422
2159,-0.006186321428571441
2160,-0.005830607142857147
2161,-0.00644957142857141
2162,-0.007416321428571391
2163,-0.007714928571428535
2164,-0.0070631785714285805
2165,-0.005993892857142846
2166,-0.005362714285714303
2167,-0.005589428571428609
2168,-0.006282321428571461
2169,-0.006552535714285718
2170,-0.006136821428571412
2171,-0.005320928571428572
2172,-0.0048852857142856875
2173,-0.005210999999999975
2174,-0.005976964285714307
2175,-0.006317892857142837
2176,-0.00600439285714283
2177,-0.0052480714285714465
2178,-0.00477289285714286
2179,-0.0047754642857142674
2180,-0.00524400000000002
2181,-0.0056944285714285925
2182,-0.005632714285714283
2183,-0.005067535714285677
2184,-0.004433464285714272
2185,-0.00431753571428575
2186,-0.004726821428571425
2187,-0.005348357142857171
2188,-0.005433000000000021
2189,-0.00506646428571429
2190,-0.004598035714285713
2191,-0.004477285714285679
2192,-0.0047455714285714375
2193,-0.005335607142857158
2194,-0.005734500000000027
2195,-0.0056792142857142736
2196,-0.005199321428571427
2197,-0.0048228214285714445
2198,-0.005033999999999977
2199,-0.005670749999999966
2200,-0.006242678571428582
2201,-0.006314678571428597
2202,-0.005957678571428561
2203,-0.005485928571428568
2204,-0.0054088928571428396
2205,-0.005760749999999985
2206,-0.006354642857142855
2207,-0.006621214285714316
2208,-0.006416571428571442
2209,-0.005855892857142894
2210,-0.0055888928571428765
2211,-0.005737821428571444
2212,-0.006193714285714285
2213,-0.006537214285714299
2214,-0.006375642857142821
2215,-0.005849678571428539
2216,-0.0053879999999999735
2217,-0.005353499999999986
2218,-0.005665392857142873
2219,-0.0060243214285714075
2220,-0.006004821428571461
2221,-0.005692928571428573
2222,-0.0051802500000000355
2223,-0.004983214285714282
2224,-0.005164714285714262
2225,-0.005595214285714256
2226,-0.005779071428571442
2227,-0.005514214285714278
2228,-0.004910892857142889
2229,-0.004368642857142824
2230,-0.004243178571428606
2231,-0.004448892857142869
2232,-0.0046389642857142584
2233,-0.004477285714285679
2234,-0.003930642857142885
2235,-0.003284357142857124
2236,-0.003202071428571404
2237,-0.003612749999999996
2238,-0.0043459285714285605
2239,-0.004804178571428608
2240,-0.004667357142857144
2241,-0.004149214285714261
2242,-0.00400425000000002
2243,-0.004170642857142859
2244,-0.004359321428571405
2245,-0.004430999999999966
2246,-0.004294821428571411
2247,-0.003939857142857127
2248,-0.003623035714285702
2249,-0.003626464285714296
2250,-0.003828214285714309
2251,-0.004096071428571437
2252,-0.004042928571428536
2253,-0.0037295357142857048
2254,-0.00327771428571429
2255,-0.003160821428571405
2256,-0.003357642857142881
2257,-0.003750750000000025
2258,-0.0038987142857143044
2259,-0.0036894642857142708
2260,-0.0032893928571428384
2261,-0.0030442499999999736
2262,-0.003081428571428546
2263,-0.0034094999999999638
2264,-0.003712071428571433
2265,-0.0036109285714285987
2266,-0.003283821428571392
2267,-0.002947607142857121
2268,-0.002939785714285722
2269,-0.003169071428571435
2270,-0.0035422500000000007
2271,-0.0036093214285714023
2272,-0.0033466071428571655
2273,-0.0029277857142857196
2274,-0.00279364285714284
2275,-0.0029497499999999732
2276,-0.003310714285714259
2277,-0.0035502857142856773
2278,-0.003386464285714322
2279,-0.0029382857142857027
2280,-0.002590392857142884
2281,-0.0026285357142857434
2282,-0.0029201785714285983
2283,-0.003312214285714278
2284,-0.0032556428571428597
2285,-0.002778857142857153
2286,-0.002319749999999995
2287,-0.002229964285714254
2288,-0.0023808214285713954
2289,-0.0028044642857142778
2290,-0.0030020357142856876
2291,-0.0027862499999999966
2292,-0.0023469642857143163
2293,-0.0020769642857142606
2294,-0.002192785714285682
2295,-0.0025134642857142556
2296,-0.0027505714285714434
2297,-0.002648142857142867
2298,-0.002318464285714253
2299,-0.00196628571428573
2300,-0.001975178571428593
2301,-0.002251071428571397
2302,-0.0026393571428571048
2303,-0.0027220714285714565
2304,-0.0024875357142857524
2305,-0.002030249999999992
2306,-0.001857428571428597
2307,-0.002031857142857112
2308,-0.0024341785714285737
2309,-0.0026996785714285716
2310,-0.002596392857142885
2311,-0.00225835714285714
2312,-0.0019670357142857397
2313,-0.002028749999999973
2314,-0.0023165357142856786
2315,-0.002641500000000033
2316,-0.002646642857142848
2317,-0.002373321428571451
2318,-0.0019291071428571575
2319,-0.0018436071428571208
2320,-0.0021256071428571795
2321,-0.0026061428571428585
2322,-0.0028287857142857372
2323,-0.0025510714285714594
2324,-0.0020500714285713937
2325,-0.001718142857142827
2326,-0.001742571428571463
2327,-0.002108357142857109
2328,-0.0024275357142857397
2329,-0.002345250000000019
2330,-0.002029178571428604
2331,-0.0016989642857142583
2332,-0.001657821428571436
2333,-0.0019100357142856897
2334,-0.0023493214285714463
2335,-0.002427214285714285
2336,-0.0021491785714285528
2337,-0.001616035714285705
2338,-0.0014982857142857092
2339,-0.001823464285714265
2340,-0.0022664999999999933
2341,-0.0023462142857143065
2342,-0.001964678571428534
2343,-0.0016186071428571124
2344,-0.0014222142857142676
2345,-0.0015018214285714038
2346,-0.0017099999999999735
2347,-0.0019452857142856876
2348,-0.0019686428571428598
2349,-0.0015945000000000067
2350,-0.0010604999999999723
2351,-0.0009940714285714032
2352,-0.0012655714285714024
2353,-0.0016825714285714508
2354,-0.0018208928571428577
2355,-0.0016251428571428456
2356,-0.0011887500000000272
2357,-0.0009155357142857312
2358,-0.0010727142857142522
2359,-0.0015420000000000147
2360,-0.00194507142857141
2361,-0.00185410714285718
2362,-0.001410857142857174
2363,-0.001005321428571396
2364,-0.001020428571428538
2365,-0.0014245714285713972
2366,-0.0019362857142857237
2367,-0.0019642499999999786
2368,-0.0015883928571428286
2369,-0.0010977857142857215
2370,-0.0008570357142857381
2371,-0.00103157142857143
2372,-0.001485535714285697
2373,-0.00172146428571432
2374,-0.0015593571428571095
2375,-0.0010890000000000353
2376,-0.0007368214285714357
2377,-0.0008505000000000048
2378,-0.0012590357142857453
2379,-0.0016467857142857209
2380,-0.0016011428571428407
2381,-0.0012355714285713962
2382,-0.0007941428571428639
2383,-0.0006934285714285845
2384,-0.0009247499999999726
2385,-0.001396285714285688
2386,-0.0015726428571428538
2387,-0.001380214285714259
2388,-0.000908892857142821
2389,-0.0006549642857142705
2390,-0.0009273214285714561
2391,-0.001437107142857132
2392,-0.0016718571428571138
2393,-0.0015300000000000123
2394,-0.0011306785714285893
2395,-0.0006887142857142489
2396,-0.0006579642857143091
2397,-0.0010635000000000108
2398,-0.0016049999999999897
2399,-0.0016966071428571284
2400,-0.0013753928571428225
2401,-0.0008719285714286025
2402,-0.0006670714285714498
2403,-0.0008711785714285928
2404,-0.0013264285714286014
2405,-0.0016252500000000225
2406,-0.0015162857142857129
2407,-0.0009874285714285692
2408,-0.00053207142857146
2409,-0.0004727142857142803
2410,-0.00068089285714285
2411,-0.0009817500000000225
2412,-0.0008958214285714305
2413,-0.00038860714285716215
2414,0.0002232857142857877
2415,0.00031564285714286
2416,-7.42499999999678e-05
2417,-0.0008594999999999686
2418,-0.0013219285714285434
2419,-0.0012500357142857053
2420,-0.0008973214285714499
2421,-0.0007062857142856974
2422,-0.0008717142857142487
2423,-0.001261285714285698
2424,-0.0014656071428571188
2425,-0.0013783928571428612
2426,-0.001069071428571457
2427,-0.0006138214285714483
2428,-0.0005417142857142565
2429,-0.0009019285714286086
2430,-0.0012376071428571477
2431,-0.0011379642857142563
2432,-0.0007818214285714069
2433,-0.0003521785714285995
2434,-0.0002692499999999701
2435,-0.0004997142857142478
2436,-0.0009194999999999811
2437,-0.0011402142857142852
2438,-0.0010011428571428686
2439,-0.0005309999999999958
2440,-0.0001217142857143218
2441,-0.0001982142857143186
2442,-0.0006012857142857137
2443,-0.001001999999999979
2444,-0.0009466071428571255
2445,-0.0005443928571428407
2446,-8.592857142859194e-05
2447,-2.5392857142847446e-05
2448,-0.0003012857142857277
2449,-0.0007315714285714442
2450,-0.0008243571428571477
2451,-0.0006170357142856885
2452,-0.00017614285714288817
2453,7.167857142863657e-05
2454,-0.00010167857142856665
2455,-0.0005555357142857328
2456,-0.0008020714285714396
2457,-0.0006667499999999954
2458,-0.00024792857142854935
2459,0.00016521428571434984
2460,0.00015996428571435828
2461,-0.00016939285714287727
2462,-0.0006101785714285768
2463,-0.000679821428571462
2464,-0.0003455357142856893
2465,0.00017249999999994055
2466,0.00029742857142857863
2467,3.5035714285720184e-05
2468,-0.00042246428571431744
2469,-0.0006314999999999975
2470,-0.0004523571428571468
2471,8.571428571408594e-06
2472,0.00033310714285720775
2473,0.00021417857142864706
2474,-0.00020689285714282793
2475,-0.0005948571428571573
2476,-0.0005649642857142518
2477,-0.0002306785714285553
2478,0.00019725000000003133
2479,0.00023335714285721565
2480,-5.110714285714936e-05
2481,-0.0004993928571428695
2482,-0.0006464999999999625
2483,-0.00041678571428569453
2484,5.849999999999308e-05
2485,0.00024139285714289217
2486,1.1035714285715211e-05
2487,-0.000437142857142828
2488,-0.0007822499999999621
2489,-0.0006784285714285434
2490,-0.000270428571428535
2491,6.0321428571390765e-05
2492,-4.8535714285742006e-05
2493,-0.0004217142857143078
2494,-0.0008204999999999986
2495,-0.0008642142857143043
2496,-0.0005181428571428829
2497,-6.107142857140044e-05
2498,4.489285714279439e-05
2499,-0.0002006785714285491
2500,-0.0006969642857142792
2501,-0.0009218571428571108
2502,-0.0007145357142857277
2503,-0.0003268928571428528
2504,-8.292857142855325e-05
2505,-0.00019435714285716952
2506,-0.0005965714285714542
2507,-0.0009592500000000369
2508,-0.0009359999999999654
2509,-0.0005808214285714034
2510,-0.00012514285714283955
2511,-5.164285714288143e-05
2512,-0.0003916071428571247
2513,-0.0009996428571428493
2514,-0.0012057857142857439
2515,-0.0008844642857142609
2516,-0.0003962142857142835
2517,-0.00017346428571430396
2518,-0.00022446428571427647
2519,-0.000520285714285735
2520,-0.0008949642857143202
2521,-0.0008857500000000026
2522,-0.00041207142857143503
2523,4.33928571429273e-05
2524,-9.857142857142724e-05
2525,-0.0005085000000000101
2526,-0.0008523214285714025
2527,-0.0008947499999999664
2528,-0.0005731071428571052
2529,-0.00013146428571429527
2530,-0.00014078571428571355
2531,-0.00038335714285717056
2532,-0.000746142857142854
2533,-0.0008774999999999724
2534,-0.0006292499999999685
2535,-0.0001681071428571355
2536,0.0001095000000000417
2537,-4.392857142881163e-06
2538,-0.0004987500000000367
2539,-0.0009299999999999642
2540,-0.0008146071428571743
2541,-0.0004153928571428521
2542,3.621428571436119e-05
2543,0.00013371428571424816
2544,-0.00022242857142860118
2545,-0.0007144285714285508
2546,-0.000752785714285688
2547,-0.0005185714285714381
2548,-0.00012128571428569047
2549,6.0321428571390765e-05
2550,-9.139285714286112e-05
2551,-0.00047453571428567796
2552,-0.0007475357142856965
2553,-0.0005923928571428507
2554,-0.0001656428571428289
2555,0.00016650000000001546
2556,3.514285714289705e-05
2557,-0.00029442857142853996
2558,-0.0005920714285713961
2559,-0.0005831785714286092
2560,-0.00027524999999997137
2561,0.00019682142857147612
2562,0.0003254999999999342
2563,7.907142857140416e-05
2564,-0.00038892857142854047
2565,-0.0005794285714285609
2566,-0.0003721071428571778
2567,8.87142857142769e-05
2568,0.00031349999999993167
2569,2.0357142857209608e-05
2570,-0.0004718571428571699
2571,-0.0008527500000000338
2572,-0.0007387500000000102
2573,-0.00031832142857144417
2574,0.00010553571428571575
2575,6.599999999993754e-05
2576,-0.0003020357142857374
2577,-0.0007816071428571294
2578,-0.0009314999999999836
2579,-0.0007182857142856999
2580,-0.00028392857142855684
2581,-7.842857142857136e-05
2582,-0.00023485714285715887
2583,-0.000671999999999987
2584,-0.0009658928571428709
2585,-0.000847607142857143
2586,-0.0004645714285714269
2587,-0.00012996428571427593
2588,-0.00015117857142859595
2589,-0.0004103571428571381
2590,-0.000646928571428594
2591,-0.0004715357142857154
2592,2.0357142857514126e-06
2593,0.0005818928571428675
2594,0.0007488214285714382
2595,0.0005715000000000612
2596,0.00018010714285721414
2597,-0.00017592857142853445
2598,-0.0003659999999999997
2599,-0.00028232142857143673
2600,-0.00018407142857146397
2601,-0.00034746428571426385
2602,-0.0007581428571428564
2603,-0.0011034642857142682
2604,-0.0009963214285714323
2605,-0.0005910000000000082
2606,-0.00017710714285717547
2607,-0.00014014285714288073
2608,-0.00035871428571425666
2609,-0.0006986785714285761
2610,-0.0007566428571428371
2611,-0.0005205000000000126
2612,-0.00012396428571427468
2613,2.2714285714339357e-05
2614,-0.00014003571428570385
2615,-0.0004882499999999774
2616,-0.0007081071428571712
2617,-0.0005811428571428579
2618,-0.00020196428571429083
2619,0.00012717857142859098
2620,5.346428571435524e-05
2621,-0.0003148928571428503
2622,-0.0007318928571428225
2623,-0.0007313571428571665
2624,-0.00043532142857143037
2625,-6.224999999996531e-05
2626,7.3928571429198496e-06
2627,-0.00020035714285717075
2628,-0.0005827499999999779
2629,-0.0007447500000000115
2630,-0.0005819999999999683
2631,-0.0001543928571428361
2632,8.925000000000896e-05
2633,-1.0607142857160007e-05
2634,-0.0003230357142857037
2635,-0.0005780357142857184
2636,-0.000476785714285707
2637,-0.0001382142857143062
2638,0.0002088214285714786
2639,0.00021182142857136503
2640,-6.696428571430094e-05
2641,-0.00043960714285713466
2642,-0.0004806428571428561
2643,-0.00021546428571431265
2644,0.00021032142857149795
2645,0.00039460714285708727
2646,0.0002556428571428476
2647,-9.535714285711095e-05
2648,-0.00027825000000001004
2649,-0.0001278214285714238
2650,0.00023175000000001943
2651,0.0005120357142857809
2652,0.00048546428571429246
2653,0.00017325000000002636
2654,-0.00023378571428569472
2655,-0.00023121428571428737
2656,0.00017978571428568354
2657,0.0006817500000000365
2658,0.000723214285714237
2659,0.00041378571428565586
2660,3.107142857215552e-06
2661,-0.00012246428571425534
2662,7.885714285720269e-05
2663,0.00046917857142858566
2664,0.0006665357142856416
2665,0.0005227499999999655
2666,0.0001735714285714047
2667,-9.921428571426003e-05
2668,-1.4142857142854635e-05
2669,0.0003347142857142517
2670,0.0006701785714285892
2671,0.0006158571428571235
2672,0.0003142500000000175
2673,-6.5250000000004e-05
2674,-9.203571428569392e-05
2675,0.00018203571428578868
2676,0.0005748214285714783
2677,0.0006781071428570888
2678,0.0004556785714285638
2679,4.317857142857357e-05
2680,-0.00015567857142857785
2681,4.9928571428584484e-05
2682,0.0004498928571428402
2683,0.0007327499999999329
2684,0.0006402857142856838
2685,0.00030246428571421646
2686,-2.5178571428569846e-05
2687,2.507142857146911e-05
2688,0.0003215357142857605
2689,0.0007078928571428174
2690,0.000755035714285717
2691,0.000506892857142814
2692,0.00011914285714291444
2693,1.660714285708512e-05
2694,0.0002329285714285082
2695,0.0006280714285714797
2696,0.0008403214285714
2697,0.0006936428571428621
2698,0.000305571428571432
2699,1.821428571428133e-05
2700,0.0001270714285714141
2701,0.0004928571428572123
2702,0.0008450357142856595
2703,0.0007939285714285863
2704,0.0004860000000000245
2705,0.00015717857142852104
2706,0.000148392857142911
2707,0.0004199999999999347
2708,0.0008266071428571768
2709,0.0009245357142857711
2710,0.0007154999999999388
2711,0.0003252857142857327
2712,0.00014775000000000205
2713,0.00030278571428574705
2714,0.0006731785714286279
2715,0.0009682499999999246
2716,0.0009120000000000366
2717,0.0005309999999999958
2718,0.00014925000000002138
2719,0.0002013214285713819
2720,0.0004983214285714053
2721,0.0008906785714285397
2722,0.0009483214285714224
2723,0.0007145357142856515
2724,0.0002898214285714573
2725,0.00015171428571432802
2726,0.0003893571428570957
2727,0.0008373214285713614
2728,0.0010554642857143345
2729,0.0008714999999999711
2730,0.0004983214285714053
2731,0.0002555357142856707
2732,0.00039246428571431123
2733,0.0007434642857142697
2734,0.0010662857142856958
2735,0.0010113214285714736
2736,0.0006896785714285362
2737,0.00032742857142850873
2738,0.0003367500000000031
2739,0.0005860714285713949
2740,0.0009801428571429025
2741,0.0011021785714285263
2742,0.000905571428571404
2743,0.0005207142857142141
2744,0.0003440357142857461
2745,0.0004886785714285326
2746,0.000874928571428565
2747,0.0011276785714285508
2748,0.0009833571428571426
2749,0.0006089999999999358
2750,0.0002452500000000413
2751,0.00029860714285706737
2752,0.0006425357142857889
2753,0.0010479642857142376
2754,0.0010669285714286047
2755,0.0007806428571429182
2756,0.00038807142857143006
2757,0.000301071428571374
2758,0.0005327142857142166
2759,0.0009387857142857265
2760,0.0011116071428571978
2761,0.0009426428571428756
2762,0.000533142857142924
2763,0.00027364285714292743
2764,0.00040264285714291604
2765,0.0007659642857142554
2766,0.00113421428571436
2767,0.0011719285714285885
2768,0.0009541071428571461
2769,0.0007299642857142479
2770,0.0008379642857142702
2771,0.0011944285714285741
2772,0.001747714285714354
2773,0.002019642857142908
2774,0.0018064285714285485
2775,0.0011396785714285532
2776,0.000570535714285774
2777,0.0004356428571428848
2778,0.0006405000000000375
2779,0.0007959642857143377
2780,0.0007193571428570879
2781,0.0004869642857143118
2782,0.00022682142857140622
2783,0.0002963571428571145
2784,0.0006370714285714435
2785,0.0010217142857142799
2786,0.0010762499999999468
2787,0.0008539285714285988
2788,0.0004910357142856623
2789,0.0004503214285713954
2790,0.0006828214285715007
2791,0.0011100000000000014
2792,0.001283678571428583
2793,0.0010601785714285938
2794,0.0006420000000000568
2795,0.00042739285714285454
2796,0.0005857500000000166
2797,0.0009297857142857627
2798,0.0012122142857143002
2799,0.0011770714285714032
2800,0.0009025714285713654
2801,0.0005619642857142131
2802,0.0006340714285714049
2803,0.0009192857142857795
2804,0.0012841071428571383
2805,0.0013898571428572078
2806,0.0011478214285714067
2807,0.0006849642857142767
2808,0.0004723928571428258
2809,0.0006403928571428606
2810,0.0010618928571428147
2811,0.001351714285714272
2812,0.0012350357142856642
2813,0.000894964285714244
2814,0.0005706428571427986
2815,0.0006275357142857478
2816,0.0009654642857142396
2817,0.0013561071428571532
2818,0.0013741071428570808
2819,0.001100249999999952
2820,0.0006774642857143322
2821,0.0005989285714285079
2822,0.0008146071428571743
2823,0.0012199285714285983
2824,0.0014665714285714822
2825,0.001349464285714319
2826,0.0009472499999999582
2827,0.0006794999999999314
2828,0.0007895357142857051
2829,0.0011304642857142358
2830,0.0014158928571428118
2831,0.0013373571428571397
2832,0.0010487142857143234
2833,0.0006563571428571891
2834,0.0006310714285713662
2835,0.0009226071428571967
2836,0.0013838571428571303
2837,0.0014887499999999372
2838,0.001174392857142895
2839,0.0006999642857143178
2840,0.0005849999999999308
2841,0.0009013928571428766
2842,0.0012895714285714836
2843,0.001432071428571494
2844,0.0012481071428571309
2845,0.0008887499999999652
2846,0.0005855357142856629
2847,0.0006243214285713553
2848,0.0009369642857143288
2849,0.001285821428571359
2850,0.001213928571428521
2851,0.0009051428571428488
2852,0.0005167500000000404
2853,0.00048428571428565145
2854,0.0007205357142857289
2855,0.0010900714285714994
2856,0.0012348214285714627
2857,0.0010537499999999612
2858,0.000645214285714297
2859,0.00035924999999998876
2860,0.0004809642857142344
2861,0.0009445714285714502
2862,0.0013593214285713934
2863,0.0011801785714286187
2864,0.0007977857142857353
2865,0.00048021428571430087
2866,0.0004386428571429235
2867,0.0006615000000000038
2868,0.0011335714285714512
2869,0.0012671785714285224
2870,0.001042178571428514
2871,0.0006130714285714386
2872,0.00041807142857136015
2873,0.000600642857142881
2874,0.0010161428571429099
2875,0.0012426428571427855
2876,0.0011133214285714186
2877,0.0008158928571428398
2878,0.0005317499999999293
2879,0.0005502857142857412
2880,0.0008591785714285903
2881,0.0012032142857143365
2882,0.0012112500000000129
2883,0.0008871428571429213
2884,0.00045771428571431523
2885,0.0004369285714285504
2886,0.0006911785714285555
2887,0.0010318928571428846
2888,0.0010843928571428003
2889,0.0008182499999999696
2890,0.0003358928571428927
2891,8.860714285710002e-05
2892,0.0002638928571428778
2893,0.000627964285714303
2894,0.0009101785714286389
2895,0.0007825714285714928
2896,0.00035753571428576793
2897,-0.0001180714285714503
2898,-0.000223071428571434
2899,-1.6071428571429182e-05
2900,0.00041592857142858417
2901,0.00045771428571431523
2902,0.00010146428571421293
2903,-0.0005312142857142733
2904,-0.0009049285714285712
2905,-0.0007903928571428917
2906,-0.0003460714285714214
2907,-0.00012503571428573883
2908,-0.0004523571428571468
2909,-0.001034464285714292
2910,-0.001402499999999967
2911,-0.0012167142857142821
2912,-0.0008884285714285869
2913,-0.0006266785714285611
2914,-0.0006742500000000159
2915,-0.0008904642857142621
2916,-0.0012858214285714352
2917,-0.0013907142857143182
2918,-0.0010760357142857455
2919,-0.0005784642857142736
2920,-0.0005391428571428492
2921,-0.0008633571428571178
2922,-0.001293750000000011
2923,-0.0016205357142856868
2924,-0.001459821428571395
2925,-0.0010370357142856993
2926,-0.0006963214285714463
2927,-0.0007539642857142529
2928,-0.0011306785714285893
2929,-0.0015561428571428694
2930,-0.0016086428571428612
2931,-0.0013213928571428875
2932,-0.0008438571428571708
2933,-0.0006515357142856766
2934,-0.0008328214285714555
2935,-0.0012901071428571395
2936,-0.0015025714285714135
2937,-0.0013145357142856997
2938,-0.0008282142857142968
2939,-0.000506357142857158
2940,-0.0005406428571428685
2941,-0.0009205714285714452
2942,-0.0012149999999999852
2943,-0.0010535357142856837
2944,-0.000559285714285705
2945,1.2857142857112893e-05
2946,0.00014689285714289163
2947,-0.00013778571428575099
2948,-0.000470678571428605
2949,-0.00046982142857141847
2950,-0.00042835714285714184
2951,-0.00033932142857141047
2952,-0.00043778571428573695
2953,-0.0007918928571428349
2954,-0.0013382142857142501
2955,-0.0017130000000000123
2956,-0.0016742142857143196
2957,-0.0012242142857143026
2958,-0.0008032500000000046
2959,-0.0008019642857142629
2960,-0.001168821428571449
2961,-0.0017431071428571192
2962,-0.0018412499999999911
2963,-0.001499571428571451
2964,-0.001012714285714316
2965,-0.0008948571428571433
2966,-0.0011916428571428891
2967,-0.001763249999999975
2968,-0.0021144642857142872
2969,-0.001976249999999981
2970,-0.0013966071428571426
2971,-0.0009931071428571161
2972,-0.001040035714285738
2973,-0.0014732142857143162
2974,-0.0019959642857142815
2975,-0.0020132142857142757
2976,-0.0016267499999999657
2977,-0.0011626071428571703
2978,-0.0010748571428571805
2979,-0.0013864285714285376
2980,-0.0018807857142856931
2981,-0.0020151428571428503
2982,-0.0017511428571428717
2983,-0.0011908928571428795
2984,-0.0008786785714285372
2985,-0.001028250000000013
2986,-0.0016513928571428797
2987,-0.0021166071428571393
2988,-0.002032392857142844
2989,-0.0015247500000000207
2990,-0.0009294642857143083
2991,-0.0008340000000000205
2992,-0.0012389999999999901
2993,-0.0017497500000000293
2994,-0.0019209642857143043
2995,-0.0016187142857142893
2996,-0.001053857142857138
2997,-0.0007817142857143062
2998,-0.0010173214285713987
2999,-0.0016426071428571173
3000,-0.0020418214285714393
3001,-0.001968107142857128
3002,-0.0014550000000000348
3003,-0.000972535714285705
3004,-0.0009107142857142949
3005,-0.0014667857142856835
3006,-0.0023991428571428536
3007,-0.0030178928571428392
3008,-0.0028576071428571786
3009,-0.0020341071428571413
3010,-0.0013476428571428452
3011,-0.001433142857142882
3012,-0.002379428571428553
3013,-0.003290142857142848
3014,-0.003495321428571455
3015,-0.0027806785714285503
3016,-0.0019087500000000241
3017,-0.0016569642857142495
3018,-0.0023019642857142687
3019,-0.003362571428571418
3020,-0.003942964285714266
3021,-0.0034882499999999896
3022,-0.00269282142857146
3023,-0.0024150000000000053
3024,-0.0028240714285714015
3025,-0.0035257500000000163
3026,-0.003928178571428579
3027,-0.0038214642857142983
3028,-0.003318000000000002
3029,-0.003043607142857141
3030,-0.003249321428571404
3031,-0.0037833214285714384
3032,-0.004056000000000002
3033,-0.0038156785714285745
3034,-0.0032379642857143106
3035,-0.002978785714285692
3036,-0.0031413214285714577
3037,-0.0036010714285714483
3038,-0.003987535714285682
3039,-0.003927750000000023
3040,-0.00354771428571427
3041,-0.003299035714285711
3042,-0.0034685357142856888
3043,-0.0038172857142856945
3044,-0.004284964285714261
3045,-0.00439939285714284
3046,-0.0041249999999999785
3047,-0.003626892857142851
3048,-0.003364821428571447
3049,-0.0035581071428571523
3050,-0.004158642857142856
3051,-0.004633714285714266
3052,-0.004446107142857108
3053,-0.0038275714285714003
3054,-0.0032773928571428355
3055,-0.003116035714285711
3056,-0.0034560000000000307
3057,-0.004109357142857181
3058,-0.004511892857142844
3059,-0.004329000000000021
3060,-0.0035556428571428458
3061,-0.0028415357142857495
3062,-0.002736857142857144
3063,-0.00347689285714282
3064,-0.004444607142857165
3065,-0.004836214285714289
3066,-0.00421553571428573
3067,-0.0032564999999999704
3068,-0.0026941071428571257
3069,-0.0031448571428571524
3070,-0.004237071428571428
3071,-0.004858607142857174
3072,-0.004700571428571466
3073,-0.003965142857142874
3074,-0.003272250000000021
3075,-0.00319071428571431
3076,-0.0040090714285714564
3077,-0.004837607142857132
3078,-0.005077392857142828
3079,-0.004469357142857179
3080,-0.003534214285714248
3081,-0.0032702142857142695
3082,-0.00399278571428575
3083,-0.005004214285714248
3084,-0.005627250000000014
3085,-0.005283535714285722
3086,-0.0043623214285714446
3087,-0.0037693928571428613
3088,-0.004024499999999977
3089,-0.004949357142857126
3090,-0.005631857142857173
3091,-0.005513678571428545
3092,-0.004613892857142865
3093,-0.00377475000000003
3094,-0.0035559642857143003
3095,-0.004268678571428554
3096,-0.005205214285714251
3097,-0.005521928571428576
3098,-0.005026500000000032
3099,-0.00420932142857145
3100,-0.003740785714285698
3101,-0.004231071428571427
3102,-0.0051890357142857215
3103,-0.00576857142857146
3104,-0.005528464285714309
3105,-0.0046135714285714105
3106,-0.0039137142857142695
3107,-0.003966749999999994
3108,-0.004801071428571392
3109,-0.005653714285714249
3110,-0.0058053214285714
3111,-0.00502832142857143
3112,-0.004118571428571422
3113,-0.00381771428571425
3114,-0.00441985714285715
3115,-0.005327571428571406
3116,-0.005783999999999979
3117,-0.005272500000000007
3118,-0.0041674285714285424
3119,-0.00342567857142857
3120,-0.003595285714285725
3121,-0.004376142857142844
3122,-0.0049207499999999625
3123,-0.004705285714285726
3124,-0.0036818571428571495
3125,-0.00283103571428569
3126,-0.0029760000000000073
3127,-0.004149321428571438
3128,-0.00535778571428569
3129,-0.005746178571428575
3130,-0.005194071428571436
3131,-0.004420499999999983
3132,-0.004067785714285728
3133,-0.0044813571428571055
3134,-0.005321357142857128
3135,-0.005793214285714297
3136,-0.005333464285714307
3137,-0.004390928571428608
3138,-0.0040079999999999925
3139,-0.0043499999999999876
3140,-0.005048892857142841
3141,-0.005330464285714268
3142,-0.0051341785714286
3143,-0.004628249999999997
3144,-0.004344214285714264
3145,-0.004477821428571411
3146,-0.004973892857142863
3147,-0.0052921071428571305
3148,-0.005137607142857118
3149,-0.004667142857142866
3150,-0.00430017857142858
3151,-0.004392750000000006
3152,-0.004901464285714294
3153,-0.005491392857142837
3154,-0.005504357142857127
3155,-0.005039571428571423
3156,-0.004501392857142861
3157,-0.0043499999999999876
3158,-0.004614428571428597
3159,-0.005142964285714286
3160,-0.005299821428571429
3161,-0.005040857142857165
3162,-0.004481250000000005
3163,-0.004129821428571415
3164,-0.004239535714285735
3165,-0.00461592857142854
3166,-0.00484017857142854
3167,-0.004579821428571432
3168,-0.004049678571428547
3169,-0.003459642857142826
3170,-0.0032678571428571396
3171,-0.0034248214285714593
3172,-0.0037403571428571425
3173,-0.0037656428571428893
3174,-0.003415607142857142
3175,-0.0029184642857143016
3176,-0.0027049285714285634
3177,-0.0028704642857142913
3178,-0.003309214285714316
3179,-0.0035917500000000302
3180,-0.0034733571428571253
3181,-0.0029564999999999843
3182,-0.002536714285714251
3183,-0.002556214285714274
3184,-0.0028898571428571376
3185,-0.003265392857142833
3186,-0.0032240357142857335
3187,-0.002751964285714286
3188,-0.002292428571428573
3189,-0.0022326428571428384
3190,-0.002535428571428585
3191,-0.0030338571428571675
3192,-0.003211928571428554
3193,-0.0029669999999999675
3194,-0.0024610714285714405
3195,-0.0022247142857142626
3196,-0.002427214285714285
3197,-0.002849142857142871
3198,-0.003108857142857145
3199,-0.0029740714285714327
3200,-0.002566285714285702
3201,-0.002188178571428599
3202,-0.0022608214285714467
3203,-0.0025976785714285507
3204,-0.003034285714285723
3205,-0.0031163571428571655
3206,-0.002815071428571438
3207,-0.0023508214285714655
3208,-0.002246250000000037
3209,-0.0025350000000000303
3210,-0.003054750000000033
3211,-0.00327771428571429
3212,-0.0031053214285714503
3213,-0.002702249999999979
3214,-0.0024328928571428323
3215,-0.0025766785714285844
3216,-0.002966250000000034
3217,-0.0033439285714285815
3218,-0.0033317142857143016
3219,-0.0029813571428571758
3220,-0.0025554642857142642
3221,-0.0025051071428571245
3222,-0.0027952500000000364
3223,-0.003300321428571453
3224,-0.0034276071428571446
3225,-0.003183000000000012
3226,-0.002749714285714257
3227,-0.002546571428571401
3228,-0.0027386785714285417
3229,-0.0032094642857143237
3230,-0.003527142857142859
3231,-0.0034135714285714667
3232,-0.00301082142857145
3233,-0.0026736428571428913
3234,-0.002787535714285738
3235,-0.003125999999999962
3236,-0.0035028214285713994
3237,-0.0035284285714286007
3238,-0.003366964285714299
3239,-0.003096428571428587
3240,-0.002973321428571423
3241,-0.0031858928571428737
3242,-0.0037326428571428445
3243,-0.0040740000000000064
3244,-0.003806571428571434
3245,-0.0032701071428571688
3246,-0.0030684642857142564
3247,-0.0032994642857142663
3248,-0.0037854642857142904
3249,-0.0041854285714285466
3250,-0.004161214285714264
3251,-0.0038899285714285425
3252,-0.0035085000000000225
3253,-0.003397285714285684
3254,-0.0035379642857142966
3255,-0.0038983928571428503
3256,-0.004134535714285751
3257,-0.004024285714285699
3258,-0.00353153571428574
3259,-0.0034415357142857216
3260,-0.0036125357142857187
3261,-0.004030607142857155
3262,-0.004305107142857117
3263,-0.004159499999999967
3264,-0.003716785714285693
3265,-0.0032941071428571737
3266,-0.003293785714285719
3267,-0.0036365357142857237
3268,-0.004037464285714267
3269,-0.003987428571428582
3270,-0.003692785714285688
3271,-0.0032201785714285843
3272,-0.0030415714285714655
3273,-0.003283821428571392
3274,-0.003702857142857116
3275,-0.003845464285714303
3276,-0.003608464285714292
3277,-0.003268821428571427
3278,-0.0030912857142856966
3279,-0.0031525714285714507
3280,-0.0034060714285714462
3281,-0.0036773571428571675
3282,-0.0035944285714285384
3283,-0.003161464285714314
3284,-0.002576785714285685
3285,-0.002425821428571443
3286,-0.002694321428571403
3287,-0.0031415357142857356
3288,-0.0032480357142857384
3289,-0.002942999999999962
3290,-0.0024545357142857073
3291,-0.0023143928571428265
3292,-0.0025798928571428245
3293,-0.0030646071428571072
3294,-0.0033326785714285884
3295,-0.0031766785714285564
3296,-0.002699357142857117
3297,-0.002231035714285718
3298,-0.002186035714285747
3299,-0.002436964285714259
3300,-0.002742964285714322
3301,-0.0027125357142856847
3302,-0.0023869285714285737
3303,-0.002006785714285719
3304,-0.002237249999999997
3305,-0.00296442857142856
3306,-0.0037560000000000167
3307,-0.0040906071428571675
3308,-0.003938785714285738
3309,-0.0035774999999999986
3310,-0.0033527142857142675
3311,-0.0034577142857142515
3312,-0.0038404285714285892
3313,-0.00412628571428572
3314,-0.00397671428571432
3315,-0.003538285714285751
3316,-0.003146142857142894
3317,-0.003193607142857172
3318,-0.0034999285714285375
3319,-0.0039815357142856805
3320,-0.004109142857142827
3321,-0.003777857142857169
3322,-0.0032318571428571322
3323,-0.0030411428571428343
3324,-0.0033123214285714552
3325,-0.003810321428571406
3326,-0.004098214285714289
3327,-0.003900107142857147
3328,-0.0033612857142857524
3329,-0.002927464285714265
3330,-0.0029558571428571516
3331,-0.0033632142857142507
3332,-0.003756750000000026
3333,-0.003783642857142893
3334,-0.003470892857142895
3335,-0.003040821428571456
3336,-0.0029562857142857064
3337,-0.0031873928571428934
3338,-0.0035914285714285757
3339,-0.003719357142857176
3340,-0.0035003571428571688
3341,-0.003002249999999965
3342,-0.002688321428571402
3343,-0.002851714285714278
3344,-0.00331671428571426
3345,-0.0036984642857143105
3346,-0.0035413928571428905
3347,-0.0030973928571428745
3348,-0.0025893214285714196
3349,-0.00240557142857141
3350,-0.0026514642857142843
3351,-0.0031434642857143097
3352,-0.003197892857142876
3353,-0.002769642857142835
3354,-0.0022218214285714007
3355,-0.0020105357142856917
3356,-0.0020040000000000344
3357,-0.0021811071428571335
3358,-0.002386607142857119
3359,-0.0023333571428571175
3360,-0.0020625000000000274
3361,-0.00181007142857142
3362,-0.0019032857142856788
3363,-0.0022609285714285474
3364,-0.0026513571428571072
3365,-0.002585142857142892
3366,-0.002130107142857161
3367,-0.0016056428571428227
3368,-0.001567499999999963
3369,-0.001836321428571454
3370,-0.0023367857142857114
3371,-0.002539392857142835
3372,-0.002318678571428607
3373,-0.0018288214285714333
3374,-0.001489392857142846
3375,-0.0016236428571428263
3376,-0.002092928571428589
3377,-0.0024950357142856966
3378,-0.002443607142857169
3379,-0.0020502857142857475
3380,-0.001639499999999978
3381,-0.0016612500000000299
3382,-0.0019761428571428803
3383,-0.0024333214285714635
3384,-0.002521178571428554
3385,-0.00222407142857143
3386,-0.001806214285714271
3387,-0.0016883571428571744
3388,-0.001989750000000003
3389,-0.0024598928571428758
3390,-0.002591357142857171
3391,-0.0024037500000000126
3392,-0.0020388214285714007
3393,-0.0017171785714285397
3394,-0.0018293571428571655
3395,-0.00222407142857143
3396,-0.002602071428571432
3397,-0.002577428571428594
3398,-0.0022284642857143106
3399,-0.0017756785714286088
3400,-0.00172146428571432
3401,-0.0019925357142856876
3402,-0.002457964285714301
3403,-0.002647714285714312
3404,-0.002380607142857118
3405,-0.0019122857142857188
3406,-0.0017043214285714268
3407,-0.001888178571428537
3408,-0.0023211428571428376
3409,-0.0026815714285713913
3410,-0.0026235000000000295
3411,-0.0023043214285713987
3412,-0.0019634999999999687
3413,-0.0019675714285713954
3414,-0.0022727142857142725
3415,-0.0027131785714285934
3416,-0.0028619999999999835
3417,-0.002638821428571449
3418,-0.0022084285714285556
3419,-0.00207771428571427
3420,-0.002328107142857126
3421,-0.002843464285714248
3422,-0.003154607142857126
3423,-0.0029593928571428458
3424,-0.0024841071428571585
3425,-0.0021517500000000364
3426,-0.002286214285714294
3427,-0.002695607142857145
3428,-0.0031354285714285572
3429,-0.0032061428571428306
3430,-0.00288139285714283
3431,-0.002331428571428543
3432,-0.002292857142857128
3433,-0.00259917857142857
3434,-0.00302464285714285
3435,-0.0031838571428571224
3436,-0.0029514642857142704
3437,-0.002473285714285721
3438,-0.002177999999999994
3439,-0.0022940357142856934
3440,-0.002684035714285698
3441,-0.0029919642857142597
3442,-0.002867357142857152
3443,-0.002462464285714283
3444,-0.002086607142857133
3445,-0.002093892857142876
3446,-0.002355428571428548
3447,-0.0027267857142857163
3448,-0.0027729642857142523
3449,-0.0024736071428571754
3450,-0.0019932857142856975
3451,-0.001791107142857129
3452,-0.0019721785714285544
3453,-0.002395071428571427
3454,-0.002645357142857106
3455,-0.0024237857142856913
3456,-0.0018020357142857434
3457,-0.0013310357142856841
3458,-0.0013644642857142842
3459,-0.0015534642857142852
3460,-0.001865357142857173
3461,-0.0018521785714286055
3462,-0.0016296428571428276
3463,-0.001266428571428589
3464,-0.0011573571428571787
3465,-0.001607142857142842
3466,-0.0022309285714285413
3467,-0.002620821428571445
3468,-0.0025638214285713954
3469,-0.0021404999999999675
3470,-0.001926107142857119
3471,-0.0019566428571428573
3472,-0.002231785714285728
3473,-0.0023952857142857044
3474,-0.0020753571428571405
3475,-0.001429714285714288
3476,-0.0008431071428571612
3477,-0.0008018571428571621
3478,-0.0011478214285714067
3479,-0.0017306785714285614
3480,-0.002230071428571431
3481,-0.002465357142857145
3482,-0.001964571428571433
3483,-0.0012323571428571561
3484,-0.001080214285714273
3485,-0.001883142857142823
3486,-0.002880214285714265
3487,-0.0032239285714285564
3488,-0.0027807857142857274
3489,-0.002136857142857172
3490,-0.001960178571428552
3491,-0.0023838214285714344
3492,-0.0030523928571428273
3493,-0.0033821785714285416
3494,-0.00315964285714284
3495,-0.0025335000000000106
3496,-0.0021522857142856925
3497,-0.002319857142857172
3498,-0.002997964285714261
3499,-0.003537321428571464
3500,-0.0035597142857142724
3501,-0.00302624999999997
3502,-0.0024572142857142917
3503,-0.002303571428571465
3504,-0.0027796071428571626
3505,-0.0034698214285714306
3506,-0.003699321428571421
3507,-0.0033282857142857077
3508,-0.0026663571428571487
3509,-0.0023525357142856864
3510,-0.002592000000000004
3511,-0.0032296071428571794
3512,-0.0036217500000000364
3513,-0.0035139642857142917
3514,-0.002895857142857139
3515,-0.002399571428571409
3516,-0.0023931428571428524
3517,-0.0029453571428571684
3518,-0.0035285357142857015
3519,-0.00361617857142859
3520,-0.003087750000000002
3521,-0.002421857142857117
3522,-0.002238428571428562
3523,-0.0026561785714285437
3524,-0.003335785714285728
3525,-0.003635357142857159
3526,-0.0033288214285714397
3527,-0.002609249999999998
3528,-0.0021416785714286086
3529,-0.0022566428571428434
3530,-0.00291482142857143
3531,-0.0034269642857143114
3532,-0.0033989999999999806
3533,-0.0028366071428571364
3534,-0.0022569642857142975
3535,-0.0021043928571428594
3536,-0.002544107142857171
3537,-0.003159000000000007
3538,-0.0033695357142857064
3539,-0.0030136071428571347
3540,-0.0023606785714285396
3541,-0.0020457857142856892
3542,-0.002262000000000012
3543,-0.002915249999999985
3544,-0.003347035714285721
3545,-0.003195964285714302
3546,-0.0025510714285714594
3547,-0.0021192857142857237
3548,-0.00218432142857145
3549,-0.002716285714285733
3550,-0.0032251071428571216
3551,-0.0033144642857143073
3552,-0.002861785714285706
3553,-0.0022915714285714627
3554,-0.002134607142857143
3555,-0.002521714285714286
3556,-0.0032102142857142572
3557,-0.003524785714285729
3558,-0.0031855714285714196
3559,-0.0024657857142857003
3560,-0.0021833571428571627
3561,-0.0025136785714286094
3562,-0.003225428571428576
3563,-0.0036460714285714195
3564,-0.0035503928571428544
3565,-0.0028656428571428552
3566,-0.0022156071428571216
3567,-0.002123035714285696
3568,-0.0026451428571428286
3569,-0.003401464285714287
3570,-0.0037418571428571618
3571,-0.0033370714285713937
3572,-0.0025756071428571204
3573,-0.002050500000000025
3574,-0.002130857142857171
3575,-0.0028964999999999716
3576,-0.0035685000000000348
3577,-0.003466607142857114
3578,-0.0027897857142856913
3579,-0.0022855714285714614
3580,-0.002320285714285727
3581,-0.0029384999999999806
3582,-0.003317249999999992
3583,-0.0031231071428571766
3584,-0.0025381071428571696
3585,-0.0021878571428571446
3586,-0.0022250357142857167
3587,-0.002665499999999962
3588,-0.0033137142857142974
3589,-0.003608571428571393
3590,-0.0032183571428571105
3591,-0.0023304642857142556
3592,-0.0018403928571428807
3593,-0.002118428571428537
3594,-0.0029207142857142544
3595,-0.003369857142857161
3596,-0.0032122500000000085
3597,-0.0025463571428571237
3598,-0.001993607142857152
3599,-0.0018414642857142688
3600,-0.0021443571428571167
3601,-0.0026483571428571446
3602,-0.0027421071428571355
3603,-0.0024026785714285482
3604,-0.0017817857142857108
3605,-0.0014823214285714567
3606,-0.001788321428571444
3607,-0.002342678571428536
3608,-0.0026366785714285967
3609,-0.002329821428571423
3610,-0.0016100357142857038
3611,-0.0011095714285714463
3612,-0.0011361428571428586
3613,-0.0017179285714285493
3614,-0.002207678571428546
3615,-0.002232750000000015
3616,-0.0017102142857142511
3617,-0.0011047500000000098
3618,-0.0009419999999999667
3619,-0.001355142857142866
3620,-0.0020028214285713933
3621,-0.0022961785714285454
3622,-0.002059285714285711
3623,-0.001433678571428538
3624,-0.0010786071428571528
3625,-0.0012959999999999638
3626,-0.001977857142857177
3627,-0.002464071428571403
3628,-0.002403000000000003
3629,-0.0018164999999999766
3630,-0.001319892857142868
3631,-0.0013252500000000365
3632,-0.0018992142857142522
3633,-0.002533928571428566
3634,-0.0026662499999999716
3635,-0.0022447500000000176
3636,-0.0016172142857142698
3637,-0.001355142857142866
3638,-0.001670142857142893
3639,-0.002350500000000011
3640,-0.0027121071428571294
3641,-0.0025189285714286008
3642,-0.001883142857142823
3643,-0.001435928571428567
3644,-0.0014792142857143174
3645,-0.0020200714285714635
3646,-0.0024813214285713974
3647,-0.0024027857142857253
3648,-0.0017296071428571733
3649,-0.0010005000000000359
3650,-0.0007103571428571241
3651,-0.001011000000000019
3652,-0.0016279285714286067
3653,-0.002038285714285745
3654,-0.0020772857142857147
3655,-0.0017541428571428343
3656,-0.0015557142857143143
3657,-0.0017752499999999774
3658,-0.002484321428571436
3659,-0.0030018214285714097
3660,-0.0029213571428571635
3661,-0.0022966071428571766
3662,-0.0016621071428571403
3663,-0.0015007500000000157
3664,-0.001968857142857137
3665,-0.002543892857142893
3666,-0.002663464285714287
3667,-0.002230607142857163
3668,-0.0015907500000000344
3669,-0.0012919285714285372
3670,-0.0015515357142857106
3671,-0.0021715714285714376
3672,-0.0025285714285713974
3673,-0.00230475000000003
3674,-0.0016077857142857508
3675,-0.0012581785714285588
3676,-0.0013879285714285571
3677,-0.0019287857142857032
3678,-0.002358214285714309
3679,-0.00230475000000003
3680,-0.0016909285714285817
3681,-0.0010746428571428268
3682,-0.0010323214285714397
3683,-0.0015522857142857202
3684,-0.0022486071428571668
3685,-0.0025753928571428425
3686,-0.00223714285714282
3687,-0.0014747142857142593
3688,-0.001030499999999966
3689,-0.0011651785714285776
3690,-0.0018081428571428454
3691,-0.002276249999999967
3692,-0.00219653571428573
3693,-0.0015788571428571327
3694,-0.0010752857142857359
3695,-0.0010443214285714422
3696,-0.0015875357142857182
3697,-0.002206178571428603
3698,-0.0023340000000000266
3699,-0.0017605714285713907
3700,-0.0010333928571428278
3701,-0.0008574642857142933
3702,-0.0012374999999999708
3703,-0.0019011428571428267
3704,-0.0022664999999999933
3705,-0.002016857142857147
3706,-0.0013230000000000075
3707,-0.0008155714285714615
3708,-0.0008667857142857116
3709,-0.0015221785714285372
3710,-0.0020751428571428626
3711,-0.002120785714285743
3712,-0.00160264285714286
3713,-0.0009702857142857521
3714,-0.0008031428571428277
3715,-0.0012499285714286045
3716,-0.0018639642857142544
3717,-0.0020977500000000254
3718,-0.0017603571428571132
3719,-0.0011044285714285555
3720,-0.0007607142857142638
3721,-0.0009585000000000271
3722,-0.0015756428571428924
3723,-0.0020172857142857024
3724,-0.0019552500000000147
3725,-0.0013562142857142538
3726,-0.0008547857142857091
3727,-0.000832607142857178
3728,-0.0013591071428571157
3729,-0.0019520357142856985
3730,-0.002064321428571425
3731,-0.0016039285714286018
3732,-0.0009642857142857508
3733,-0.0007358571428571484
3734,-0.0010497857142857114
3735,-0.0015467142857142743
3736,-0.0016224642857142614
3737,-0.0012623571428571623
3738,-0.0007232142857143131
3739,-0.0005598214285714371
3740,-0.0007628571428571159
3741,-0.0011378571428571555
3742,-0.0012571071428571707
3743,-0.0011010000000000377
3744,-0.000731142857142889
3745,-0.00043907142857140257
3746,-0.0004883571428571543
3747,-0.0007872857142857523
3748,-0.0010697142857142897
3749,-0.0009433928571428852
3750,-0.0005996785714285937
3751,-0.00026646428571428513
3752,-0.0002979642857143107
3753,-0.0005633571428571317
3754,-0.0009144642857142671
3755,-0.0009539999999999692
3756,-0.0007085357142857264
3757,-0.00029378571428570715
3758,-0.00016553571428572816
3759,-0.00036535714285716687
3760,-0.0007479642857142517
3761,-0.0009844285714286068
3762,-0.0008331428571428339
3763,-0.0004519285714285916
3764,-0.00018417857142856471
3765,-0.00027932142857139806
3766,-0.000586607142857127
3767,-0.0009004285714285893
3768,-0.0008528571428571346
3769,-0.0005633571428571317
3770,-0.00020239285714284604
3771,-0.00017892857142857313
3772,-0.00040392857142858166
3773,-0.0007636071428571256
3774,-0.0008702142857143055
3775,-0.0006577500000000316
3776,-0.000271607142857176
3777,-8.764285714288889e-05
3778,-0.00022382142857144366
3779,-0.0005351785714285993
3780,-0.0008141785714285429
3781,-0.0007178571428571446
3782,-0.0003603214285714529
3783,-1.1035714285715211e-05
3784,-1.553571428569711e-05
3785,-0.0002924999999999654
3786,-0.0006383571428571092
3787,-0.0006599999999999844
3788,-0.00040982142857140606
3789,-6.2142857142788445e-06
3790,0.00013242857142858254
3791,-5.367857142855672e-05
3792,-0.00039696428571429313
3793,-0.0005680714285713912
3794,-0.00040189285714283023
3795,-2.432142857145944e-05
3796,0.00021728571428571034
3797,9.792857142859443e-05
3798,-0.00021771428571426554
3799,-0.0005395714285714044
3800,-0.0005386071428571171
3801,-0.00026153571428574803
3802,0.0001458214285714275
3803,0.00022660714285720472
3804,1.8535714285659667e-05
3805,-0.0003544285714285524
3806,-0.0004506428571428499
3807,-0.0002282142857142487
3808,0.00014721428571426998
3809,0.0003304285714285474
3810,0.00013467857142853543
3811,-0.0002761071428571579
3812,-0.0005187857142857157
3813,-0.00038400000000000337
3814,-3.235714285713596e-05
3815,0.00033867857142857766
3816,0.00036867857142850775
3817,0.00016189285714293282
3818,-8.121428571425632e-05
3819,3.0642857142839015e-05
3820,0.00039310714285706793
3821,0.0009259285714286136
3822,0.0011967857142857038
3823,0.0010303928571428653
3824,0.00046810714285712153
3825,-4.6285714285712996e-05
3826,-0.00018749999999998174
3827,-3.0750000000015886e-05
3828,0.0001078928571428455
3829,-5.249999999999184e-05
3830,-0.000318964285714277
3831,-0.0004944642857142562
3832,-0.0003236785714285365
3833,2.185714285707669e-05
3834,0.0003652500000000661
3835,0.0003406071428571522
3836,0.00018932142857137942
3837,-3.428571428571051e-05
3838,-0.00012717857142859098
3839,2.2499999999985626e-05
3840,0.0003458571428571438
3841,0.0005694642857143098
3842,0.0003893571428570957
3843,4.628571428578913e-05
3844,-0.00014196428571427842
3845,-0.00011089285714288418
3846,0.00023721428571421248
3847,0.0007292142857143144
3848,0.0007524642857142335
3849,0.00044946428571428497
3850,6.739285714293227e-05
3851,8.046428571424664e-05
3852,0.00032946428571426015
3853,0.0007687499999999403
3854,0.0009677142857143447
3855,0.0007041428571428452
3856,0.00017796428571428585
3857,-0.00011774999999999584
3858,0.00015075000000004074
3859,0.0007626428571428384
3860,0.001121357142857095
3861,0.000985928571428626
3862,0.0005740714285713925
3863,0.00016692857142857064
3864,0.00023892857142858556
3865,0.0006781071428570888
3866,0.0011890714285714057
3867,0.0012077142857142421
3868,0.0008896071428570756
3869,0.00047603571428577346
3870,0.0003916071428572008
3871,0.000666428571428617
3872,0.0011204999999999846
3873,0.0013486071428572086
3874,0.0011366785714285144
3875,0.0006769285714286001
3876,0.0003650357142857124
3877,0.0004780714285713726
3878,0.0008753571428571202
3879,0.0012609642857142438
3880,0.0012147857142857836
3881,0.0008260714285714447
3882,0.0003012857142857277
3883,0.00022724999999996142
3884,0.00048674999999995803
3885,0.0008680714285713773
3886,0.0009527142857143036
3887,0.0006686785714285699
3888,0.00012664285714285889
3889,-0.00019971428571426183
3890,-6.685714285712408e-05
3891,0.0003206785714284978
3892,0.0005901428571428978
3893,0.00044024999999996747
3894,5.571428571369909e-06
3895,-0.00040307142857139513
3896,-0.00041432142857146406
3897,-0.00014196428571427842
3898,0.00023185714285719631
3899,0.00026357142857149946
3900,-1.87500000000134e-05
3901,-0.0005462142857143146
3902,-0.0007505357142857351
3903,-0.0005282142857143108
3904,-9.717857142858476e-05
3905,8.185714285708911e-05
3906,-0.00013403571428570262
3907,-0.0005619642857142892
3908,-0.0008794285714285469
3909,-0.0007862142857142881
3910,-0.00036428571428570274
3911,9.642857142872735e-06
3912,-0.0001311428571428408
3913,-0.000499071428571415
3914,-0.0008931428571428464
3915,-0.000893892857142856
3916,-0.0005590714285714274
3917,-8.4214285714295e-05
3918,7.350000000003426e-05
3919,-0.00018975000000001074
3920,-0.000655821428571457
3921,-0.0009467142857143023
3922,-0.000859285714285691
3923,-0.0005317500000000054
3924,-0.00017839285714284106
3925,-0.00013885714285713898
3926,-0.0005052857142856938
3927,-0.0009159642857142864
3928,-0.000873857142857177
3929,-0.0005565000000000201
3930,-0.00015782142857143
3931,-0.00012889285714288792
3932,-0.00035367857142854273
3933,-0.0007007142857142514
3934,-0.0008349642857143077
3935,-0.0005424642857142661
3936,-0.00015096428571431835
3937,7.3928571429198496e-06
3938,-0.00027503571428569377
3939,-0.0008267142857142774
3940,-0.0010625357142857235
3941,-0.0007926428571428445
3942,-0.00021664285714287753
3943,0.0001321071428572042
3944,2.635714285713472e-05
3945,-0.0003218571428571388
3946,-0.0007644642857143122
3947,-0.0008622857142857297
3948,-0.0005634642857143086
3949,-6.535714285718086e-05
3950,0.0001321071428572042
3951,-0.00015953571428572693
3952,-0.0006881785714285929
3953,-0.0008207142857142762
3954,-0.0005957142857142677
3955,-0.00020346428571431016
3956,5.957142857145722e-05
3957,-6.11785714285773e-05
3958,-0.00047507142857141006
3959,-0.0007481785714286053
3960,-0.0005943214285714252
3961,-0.0002259642857142958
3962,0.00021557142857148954
3963,0.0002760000000000572
3964,-7.875000000002582e-05
3965,-0.0005560714285714649
3966,-0.0006467142857143163
3967,-0.0003491785714285608
3968,0.00012267857142853294
3969,0.00030289285714292394
3970,5.657142857141854e-05
3971,-0.00047389285714284515
3972,-0.0008254285714285357
3973,-0.0007344642857143059
3974,-0.00036910714285713907
3975,-3.6535714285739526e-05
3976,-0.00013650000000000923
3977,-0.0005563928571428432
3978,-0.0009968571428571643
3979,-0.001017642857142853
3980,-0.0007355357142856939
3981,-0.0002904642857142901
3982,-0.00019853571428569695
3983,-0.0005082857142857326
3984,-0.0010041428571428313
3985,-0.0011807142857142747
3986,-0.0009037500000000063
3987,-0.0004216071428571309
3988,-6.771428571431062e-05
3989,-6.396428571426225e-05
3990,-0.00029828571428568905
3991,-0.0004853571428571156
3992,-0.00031210714285716533
3993,9.332142857135954e-05
3994,0.0004714285714285385
3995,0.00025478571428573716
3996,-0.00045460714285717584
3997,-0.0012446785714285368
3998,-0.0014692499999999903
3999,-0.0012321428571428785
4000,-0.0008160000000000167
4001,-0.0006755357142856815
4002,-0.0008593928571428679
4003,-0.0012337499999999985
4004,-0.0014703214285714543
4005,-0.0012875357142857321
4006,-0.0008656071428571467
4007,-0.0004959642857142756
4008,-0.0005291785714285981
4009,-0.0008762142857143068
4010,-0.0012676071428571539
4011,-0.0012564642857142618
4012,-0.000988071428571402
4013,-0.0005329285714285703
4014,-0.0004040357142856824
4015,-0.0006350357142856922
4016,-0.0010878214285713942
4017,-0.0013016785714285869
4018,-0.0011031428571428897
4019,-0.0006644999999999663
4020,-0.00036782142857139734
4021,-0.00046960714285714086
4022,-0.0008814642857142983
4023,-0.001297178571428605
4024,-0.0012594642857143004
4025,-0.0008685000000000086
4026,-0.00043735714285710563
4027,-0.0004215000000000302
4028,-0.0007688571428571172
4029,-0.0011672142857142528
4030,-0.0011880000000000176
4031,-0.0009505714285714514
4032,-0.0006068571428571597
4033,-0.0004406785714285988
4034,-0.0005247857142857169
4035,-0.0008829642857143176
4036,-0.0011223214285714584
4037,-0.001024392857142864
4038,-0.000732750000000009
4039,-0.0005565000000000201
4040,-0.0006183214285714302
4041,-0.0006570000000000218
4042,-0.0008667857142857116
4043,-0.0009978214285714516
4044,-0.0007597499999999765
4045,-0.00030289285714284783
4046,-0.00015942857142855007
4047,-0.0004060714285714338
4048,-0.0008917500000000039
4049,-0.001059535714285685
4050,-0.0008262857142857222
4051,-0.00042364285714288234
4052,-0.00026442857142853376
4053,-0.0004331785714285782
4054,-0.0007749642857142953
4055,-0.0010652142857143078
4056,-0.0008767499999999627
4057,-0.0005546785714285463
4058,-0.00023282142857140745
4059,-0.000252642857142885
4060,-0.0005882142857143233
4061,-0.0010779642857143199
4062,-0.0011313214285714223
4063,-0.0008885357142856875
4064,-0.0005802857142857475
4065,-0.0004146428571428424
4066,-0.0005332500000000248
4067,-0.0008722499999999808
4068,-0.0011144999999999833
4069,-0.0010157142857142784
4070,-0.0006694285714285796
4071,-0.0003153214285714055
4072,-0.00035046428571430257
4073,-0.0007864285714285657
4074,-0.001171071428571402
4075,-0.0011060357142857516
4076,-0.0007955357142857064
4077,-0.00039878571428569084
4078,-0.0003911785714285695
4079,-0.0007256785714285436
4080,-0.001221857142857173
4081,-0.0014557499999999684
4082,-0.00129096428571425
4083,-0.0008779285714286037
4084,-0.0006061071428571501
4085,-0.0007532142857143194
4086,-0.0011748214285714502
4087,-0.001497214285714321
4088,-0.0014055000000000055
4089,-0.0010779642857143199
4090,-0.0007373571428571677
4091,-0.000766714285714265
4092,-0.0010686428571428255
4093,-0.001473321428571417
4094,-0.0015393214285714305
4095,-0.0012817500000000086
4096,-0.0008423571428571514
4097,-0.0006887142857142489
4098,-0.0009231428571428525
4099,-0.001333285714285713
4100,-0.001588714285714283
4101,-0.0014675357142856934
4102,-0.0010882500000000256
4103,-0.0007363928571428805
4104,-0.0008102142857142931
4105,-0.0012163928571428276
4106,-0.0016122857142857328
4107,-0.001588178571428551
4108,-0.001274142857142887
4109,-0.000864321428571405
4110,-0.0007981071428571138
4111,-0.0010443214285714422
4112,-0.0014697857142857223
4113,-0.0016430357142857485
4114,-0.0014613214285714145
4115,-0.001039928571428561
4116,-0.0007813928571428517
4117,-0.0009359999999999654
4118,-0.0013577142857142733
4119,-0.0016877142857142655
4120,-0.001604357142857157
4121,-0.0012737142857142559
4122,-0.0008979642857142828
4123,-0.0008945357142856888
4124,-0.0012281785714285526
4125,-0.0016510714285714251
4126,-0.0017165357142857067
4127,-0.001476642857142834
4128,-0.0011105357142857336
4129,-0.0009952499999999682
4130,-0.001108071428571427
4131,-0.0014668928571428604
4132,-0.0017813571428571555
4133,-0.0016659642857142895
4134,-0.001226249999999978
4135,-0.000864857142857137
4136,-0.0009695357142857424
4137,-0.0013668214285714139
4138,-0.0018247500000000067
4139,-0.0019829999999999917
4140,-0.001734214285714256
4141,-0.0012191785714285887
4142,-0.001019999999999983
4143,-0.0012155357142857172
4144,-0.0017010000000000096
4145,-0.0020830714285714385
4146,-0.0019718571428571758
4147,-0.0013488214285714102
4148,-0.001033285714285727
4149,-0.0013114285714285602
4150,-0.0017829642857142758
4151,-0.002042571428571449
4152,-0.0018774642857142762
4153,-0.0015343928571428934
4154,-0.0011702142857142916
4155,-0.0012451071428571682
4156,-0.001597071428571414
4157,-0.0018772499999999985
4158,-0.001759392857142826
4159,-0.001377321428571397
4160,-0.000741642857142872
4161,-0.0003701785714286032
4162,-0.0004173214285714266
4163,-0.0007746428571428408
4164,-0.001003714285714276
4165,-0.0009268928571428247
4166,-0.0007577142857143012
4167,-0.0007795714285714541
4168,-0.0011195357142856973
4169,-0.0015347142857142719
4170,-0.0019392857142856864
4171,-0.002088214285714253
4172,-0.001863642857142876
4173,-0.001363928571428552
4174,-0.0011267142857142635
4175,-0.0013900714285714091
4176,-0.001748785714285742
4177,-0.0017254285714285698
4178,-0.0014777142857142981
4179,-0.0010292142857143004
4180,-0.0007766785714285922
4181,-0.0009388928571428273
4182,-0.0013644642857142842
4183,-0.0016469999999999985
4184,-0.001509964285714257
4185,-0.0011107500000000113
4186,-0.0006995357142856865
4187,-0.0006923571428571203
4188,-0.0010030714285714432
4189,-0.00147825000000003
4190,-0.0015454285714286086
4191,-0.0012077142857143182
4192,-0.0007482857142857061
4193,-0.0005837142857142652
4194,-0.000816964285714304
4195,-0.0012376071428571477
4196,-0.0013995000000000043
4197,-0.0012271071428571645
4198,-0.0008451428571428364
4199,-0.0005496428571428323
4200,-0.0006484285714285371
4201,-0.000995892857142877
4202,-0.001328357142857176
4203,-0.00129760714285716
4204,-0.0009947142857143123
4205,-0.0005773928571428857
4206,-0.0005008928571428889
4207,-0.0007278214285713957
4208,-0.0011379642857142563
4209,-0.0012865714285714449
4210,-0.0010520357142857404
4211,-0.0006324642857142848
4212,-0.0004299642857142619
4213,-0.0005758928571428663
4214,-0.000929035714285677
4215,-0.0012308571428571366
4216,-0.0011211428571428937
4217,-0.0007489285714285389
4218,-0.0003952499999999962
4219,-0.00039814285714285803
4220,-0.0006928928571428524
4221,-0.0010963928571428789
4222,-0.0011635714285714574
4223,-0.0009317142857142611
4224,-0.0005116071428571496
4225,-0.00035882142857143355
4226,-0.0005638928571428638
4227,-0.0009934285714285705
4228,-0.0012582857142857356
4229,-0.0011235000000000234
4230,-0.0006820714285714148
4231,-0.0003523928571428771
4232,-0.00044271428571427405
4233,-0.0008269285714285551
4234,-0.0012261428571428772
4235,-0.001205678571428567
4236,-0.0009168214285713969
4237,-0.0005256428571428273
4238,-0.0004521428571428692
4239,-0.0007359642857142491
4240,-0.0012106071428571801
4241,-0.0013742142857142577
4242,-0.0011533928571428526
4243,-0.0007546071428571618
4244,-0.000580500000000025
4245,-0.000717107142857135
4246,-0.0010775357142856887
4247,-0.0013942500000000127
4248,-0.0013196785714285906
4249,-0.0009761785714285764
4250,-0.0006313928571428206
4251,-0.0006622500000000134
4252,-0.0009489642857142552
4253,-0.001331678571428593
4254,-0.0014028214285714212
4255,-0.0011734285714286078
4256,-0.0007083214285714489
4257,-0.0005176071428571508
4258,-0.000741642857142872
4259,-0.0012163928571428276
4260,-0.0014150357142857014
4261,-0.0012310714285714143
4262,-0.0008826428571428632
4263,-0.0006662142857142633
4264,-0.0007970357142857257
4265,-0.0010492499999999795
4266,-0.00139360714285718
4267,-0.001408607142857145
4268,-0.0010061785714285828
4269,-0.0005517857142856845
4270,-0.0005662499999999935
4271,-0.000816964285714304
4272,-0.0012620357142857077
4273,-0.0013475357142857444
4274,-0.0009514285714285618
4275,-0.0005291785714285981
4276,-0.00036739285714284213
4277,-0.0005277857142856794
4278,-0.000981000000000013
4279,-0.0013252500000000365
4280,-0.0011836071428571364
4281,-0.0007760357142856833
4282,-0.00043992857142858915
4283,-0.0005232857142856976
4284,-0.000864321428571405
4285,-0.0013234285714285626
4286,-0.0013577142857142733
4287,-0.000946821428571403
4288,-0.0004460357142856911
4289,-0.0003109285714286005
4290,-0.0005323928571428383
4291,-0.0009923571428571063
4292,-0.0012506785714285382
4293,-0.0010697142857142897
4294,-0.0006640714285714111
4295,-0.0003501428571428481
4296,-0.0004111071428571478
4297,-0.0007772142857142482
4298,-0.0011659285714285873
4299,-0.001101321428571416
4300,-0.0007526785714285873
4301,-0.0003498214285713936
4302,-0.00031864285714282254
4303,-0.000568285714285745
4304,-0.0009684642857142782
4305,-0.0011050714285714643
4306,-0.0008718214285714256
4307,-0.00044464285714284864
4308,-0.00023399999999997232
4309,-0.00041282142857144473
4310,-0.0008274642857142872
4311,-0.0010764642857143006
4312,-0.0010022142857142567
4313,-0.0007246071428571556
4314,-0.0004317857142857357
4315,-0.0004909285714285617
4316,-0.0008075357142857089
4317,-0.0011739642857142637
4318,-0.0012021428571428723
4319,-0.0009138214285714343
4320,-0.00045857142857142565
4321,-0.000337928571428568
4322,-0.0006443571428571104
4323,-0.0011124642857143082
4324,-0.0013196785714285906
4325,-0.001158750000000021
4326,-0.0007621071428571063
4327,-0.00045771428571431523
4328,-0.0005434285714285534
4329,-0.0008897142857142525
4330,-0.001188428571428573
4331,-0.0010458214285714617
4332,-0.0005561785714285657
4333,5.507142857139919e-05
4334,0.00023389285714279546
4335,2.635714285713472e-05
4336,-0.0003461785714285983
4337,-0.0004828928571428851
4338,-0.00045921428571425846
4339,-0.00034746428571426385
4340,-0.0003923571428571344
4341,-0.0006633214285714015
4342,-0.0011239285714285785
4343,-0.0014931428571428945
4344,-0.001370678571428563
4345,-0.000908892857142821
4346,-0.00046285714285712994
4347,-0.00043757142857145934
4348,-0.0007059642857143191
4349,-0.0010674642857142608
4350,-0.001061249999999982
4351,-0.0007964999999999936
4352,-0.0004298571428571612
4353,-0.0002702142857142574
4354,-0.00028971428571428047
4355,-0.00059389285714287
4356,-0.0007467857142856867
4357,-0.0006237857142856993
4358,-0.00026764285714285003
4359,4.1035714285645296e-05
4360,5.9142857142902015e-05
4361,-0.00020946428571431142
4362,-0.0007176428571428671
4363,-0.0007789285714285451
4364,-0.0003695357142856943
4365,0.00012010714285720172
4366,0.00016874999999996832
4367,-5.892857142854829e-05
4368,-0.00037489285714286275
4369,-0.00042449999999999275
4370,-0.00015857142857143966
4371,0.0002705357142857119
4372,0.0004969285714285629
4373,0.0004170000000000483
4374,7.853571428567209e-05
4375,-0.0001837500000000095
4376,-0.00011271428571428187
4377,0.00022264285714287878
4378,0.0005634642857142325
4379,0.00046542857142861346
4380,0.0002913214285714767
4381,9.942857142861377e-05
4382,0.0001254642857142179
4383,0.00035378571428564345
4384,0.0007151785714285605
4385,0.0008248928571428037
4386,0.0006208928571429137
4387,0.00021321428571435979
4388,2.34642857142729e-05
4389,0.00026442857142860987
4390,0.0006613928571428269
4391,0.0009350357142857543
4392,0.0008452500000000133
4393,0.0005005714285713582
4394,0.0001825714285713685
4395,0.00025007142857147766
4396,0.0005817857142856906
4397,0.0009766071428571317
4398,0.0009709285714285849
4399,0.0006748928571428487
4400,0.00025135714285714323
4401,0.00014507142857149395
4402,0.00037392857142849934
4403,0.0007731428571428214
4404,0.0009606428571428032
4405,0.0009009642857143214
4406,0.000687107142857205
4407,0.0004060714285713577
4408,0.00028414285714291055
4409,0.00047324999999993623
4410,0.0006383571428571092
4411,0.0005487857142857219
4412,0.00028703571428577234
4413,9.642857142872734e-07
4414,-5.6785714285467744e-06
4415,0.0002556428571428476
4416,0.000689785714285713
4417,0.0007640357142856808
4418,0.00047560714285721826
4419,-3.75000000000268e-05
4420,-0.0002381785714285759
4421,4.628571428578913e-05
4422,0.0005442857142856639
4423,0.0006733928571428293
4424,0.0004848214285713835
4425,5.9678571428634086e-05
4426,-0.00032989285714289147
4427,-0.00029432142857143925
4428,8.892857142786934e-06
4429,0.00034767857142854145
